0,0,0,0,0.001,0.005,0.011,0.023,0.043,0.074,0.118,0.18,0.262,0.366,0.495,0.648,0.826,1.028,1.25,1.49,1.744,2.007,2.274,2.54,2.802,3.053,3.291,3.512,3.715,3.897,4.056,4.194,4.308,4.4,4.47,4.519,4.547,4.556,4.548,4.524,4.487,4.438,4.381,4.319,4.255,4.191,4.13,4.075,4.029,3.991,3.964,3.947,3.939,3.941,3.95,3.965,3.985,4.007,4.031,4.056,4.081,4.105,4.128,4.15,4.171,4.191,4.209,4.224,4.238,4.248,4.254,4.256,4.253,4.245,4.232,4.214,4.191,4.166,4.138,4.11,4.082,4.056,4.033,4.012,3.995,3.981,3.969,3.96,3.953,3.946,3.94,3.934,3.928,3.923,3.919,3.917,3.917,3.92,3.927,3.938,3.952,3.969,3.989,4.011,4.033,4.056,4.076,4.095,4.111,4.124,4.135,4.144,4.15,4.156,4.161,4.165,4.17,4.175,4.18,4.184,4.186,4.187,4.185,4.18,4.172,4.16,4.146,4.129,4.111,4.093,4.075,4.059,4.045,4.034,4.024,4.018,4.012,4.008,4.004,3.999,3.994,3.987,3.979,3.97,3.961,3.952,3.945,3.94,3.937,3.938,3.943,3.951,3.963,3.977,3.993,4.009,4.026,4.043,4.059,4.075,4.09,4.105,4.12,4.136,4.155,4.175,4.196,4.22,4.245,4.271,4.295,4.319,4.34,4.358,4.371,4.381,4.386,4.388,4.385,4.381,4.374,4.366,4.357,4.348,4.338,4.328,4.318,4.306,4.292,4.277,4.259,4.241,4.221,4.202,4.184,4.169,4.158,4.154,4.157,4.169,4.19,4.22,4.261,4.311,4.371,4.44,4.516,4.6,4.692,4.79,4.895,5.006,5.124,5.247,5.375,5.507,5.64,5.773,5.902,6.024,6.135,6.23,6.306,6.358,6.381,6.373,6.331,6.252,6.135,5.98,5.785,5.553,5.285,4.984,4.653,4.296,3.918,3.525,3.121,2.714,2.311,1.919,1.545,1.196,0.879,0.601,0.366,0.179,0.043,-0.039,-0.069,-0.047,0.022,0.138,0.295,0.487,0.708,0.953,1.215,1.488,1.768,2.049,2.326,2.597,2.857,3.104,3.335,3.548,3.741,3.913,4.063,4.19,4.295,4.378,4.441,4.484,4.512,4.526,4.529,4.525,4.516,4.505,4.494,4.486,4.481,4.481,4.485,4.493,4.505,4.521,4.538,4.558,4.578,4.599,4.621,4.644,4.667,4.691,4.716,4.741,4.766,4.791,4.814,4.834,4.851,4.863,4.871,4.873,4.87,4.861,4.849,4.834,4.816,4.798,4.78,4.763,4.749,4.738,4.73,4.724,4.721,4.72,4.719,4.72,4.722,4.724,4.726,4.73,4.735,4.743,4.754,4.768,4.785,4.805,4.829,4.854,4.881,4.908,4.933,4.956,4.977,4.994,5.007,5.016,5.022,5.026,5.029,5.03,5.032,5.034,5.038,5.042,5.047,5.053,5.059,5.063,5.067,5.07,5.071,5.071,5.071,5.07,5.071,5.074,5.079,5.088,5.099,5.115,5.133,5.153,5.175,5.197,5.218,5.237,5.255,5.27,5.282,5.291,5.299,5.305,5.31,5.315,5.32,5.326,5.333,5.34,5.347,5.353,5.358,5.362,5.364,5.364,5.363,5.361,5.359,5.358,5.358,5.362,5.369,5.38,5.395,5.414,5.436,5.461,5.487,5.513,5.539,5.563,5.584,5.603,5.619,5.633,5.645,5.655,5.664,5.672,5.68,5.688,5.695,5.7,5.704,5.706,5.704,5.7,5.691,5.679,5.663,5.645,5.624,5.603,5.581,5.56,5.539,5.52,5.502,5.484,5.466,5.447,5.427,5.404,5.378,5.347,5.313,5.275,5.233,5.189,5.142,5.094,5.044,4.994,4.944,4.892,4.84,4.787,4.732,4.674,4.613,4.549,4.483,4.413,4.342,4.27,4.199,4.129,4.061,3.996,3.936,3.879,3.827,3.778,3.732,3.689,3.647,3.607,3.568,3.529,3.491,3.453,3.418,3.385,3.354,3.327,3.304,3.283,3.267,3.253,3.241,3.231,3.221,3.211,3.2,3.188,3.174,3.16,3.145,3.131,3.118,3.107,3.099,3.094,3.091,3.092,3.095,3.1,3.105,3.111,3.116,3.12,3.123,3.125,3.126,3.128,3.129,3.133,3.138,3.146,3.156,3.169,3.184,3.2,3.217,3.234,3.249,3.262,3.273,3.281,3.287,3.29,3.293,3.296,3.299,3.304,3.311,3.321,3.333,3.348,3.365,3.384,3.404,3.423,3.442,3.461,3.478,3.495,3.511,3.528,3.546,3.565,3.586,3.609,3.634,3.66,3.688,3.715,3.741,3.765,3.786,3.804,3.819,3.829,3.837,3.842,3.845,3.848,3.85,3.854,3.858,3.864,3.871,3.88,3.888,3.896,3.904,3.91,3.914,3.916,3.917,3.917,3.917,3.917,3.918,3.921,3.927,3.935,3.946,3.959,3.973,3.987,4.001,4.014,4.025,4.033,4.039,4.042,4.043,4.043,4.042,4.042,4.042,4.044,4.048,4.053,4.06,4.068,4.076,4.084,4.091,4.097,4.102,4.106,4.109,4.111,4.115,4.119,4.125,4.133,4.143,4.155,4.168,4.183,4.197,4.21,4.221,4.23,4.235,4.237,4.236,4.232,4.226,4.219,4.211,4.204,4.197,4.192,4.188,4.185,4.183,4.18,4.178,4.174,4.169,4.163,4.155,4.148,4.14,4.133,4.129,4.127,4.129,4.136,4.146,4.16,4.178,4.198,4.22,4.242,4.264,4.285,4.305,4.322,4.338,4.353,4.367,4.382,4.397,4.413,4.43,4.449,4.47,4.491,4.512,4.532,4.551,4.567,4.581,4.592,4.6,4.605,4.609,4.611,4.613,4.615,4.617,4.621,4.625,4.629,4.634,4.638,4.641,4.642,4.641,4.638,4.633,4.625,4.617,4.609,4.601,4.594,4.59,4.588,4.588,4.59,4.594,4.599,4.604,4.608,4.61,4.61,4.608,4.602,4.595,4.585,4.576,4.566,4.558,4.551,4.547,4.546,4.548,4.552,4.558,4.565,4.573,4.581,4.588,4.594,4.599,4.603,4.607,4.61,4.615,4.62,4.626,4.634,4.641,4.649,4.656,4.662,4.665,4.665,4.661,4.654,4.642,4.628,4.61,4.592,4.573,4.554,4.536,4.521,4.508,4.497,4.489,4.482,4.476,4.47,4.464,4.457,4.449,4.439,4.429,4.418,4.408,4.399,4.391,4.387,4.384,4.385,4.388,4.393,4.4,4.407,4.414,4.421,4.427,4.431,4.435,4.437,4.438,4.44,4.441,4.444,4.447,4.451,4.456,4.461,4.466,4.47,4.472,4.471,4.467,4.461,4.452,4.441,4.429,4.417,4.406,4.397,4.391,4.389,4.391,4.398,4.407,4.42,4.435,4.451,4.468,4.484,4.499,4.513,4.526,4.538,4.55,4.563,4.576,4.591,4.607,4.625,4.644,4.663,4.682,4.7,4.716,4.729,4.74,4.747,4.752,4.755,4.756,4.757,4.758,4.76,4.763,4.769,4.776,4.786,4.796,4.807,4.818,4.829,4.838,4.845,4.851,4.856,4.86,4.864,4.868,4.874,4.881,4.89,4.9,4.912,4.925,4.937,4.948,4.956,4.962,4.964,4.962,4.957,4.948,4.936,4.923,4.909,4.894,4.881,4.869,4.859,4.851,4.844,4.838,4.833,4.827,4.82,4.813,4.804,4.794,4.783,4.772,4.762,4.754,4.747,4.742,4.74,4.74,4.742,4.744,4.747,4.749,4.749,4.747,4.743,4.736,4.726,4.715,4.703,4.691,4.679,4.669,4.662,4.656,4.652,4.65,4.65,4.65,4.65,4.649,4.647,4.643,4.638,4.632,4.625,4.619,4.614,4.611,4.609,4.611,4.615,4.621,4.629,4.638,4.647,4.656,4.663,4.669,4.674,4.677,4.68,4.682,4.685,4.689,4.696,4.705,4.717,4.732,4.749,4.768,4.788,4.808,4.826,4.844,4.859,4.872,4.883,4.893,4.901,4.909,4.918,4.927,4.938,4.949,4.962,4.974,4.987,4.998,5.007,5.013,5.017,5.017,5.014,5.008,5,4.992,4.983,4.975,4.969,4.964,4.962,4.961,4.961,4.962,4.963,4.963,4.961,4.957,4.951,4.943,4.934,4.924,4.914,4.905,4.899,4.895,4.894,4.897,4.902,4.911,4.921,4.933,4.945,4.957,4.968,4.978,4.988,4.998,5.008,5.018,5.029,5.041,5.055,5.07,5.086,5.101,5.115,5.127,5.135,5.139,5.139,5.134,5.124,5.109,5.091,5.07,5.046,5.022,4.998,4.973,4.95,4.926,4.903,4.879,4.855,4.829,4.802,4.772,4.741,4.709,4.676,4.643,4.612,4.583,4.558,4.537,4.52,4.508,4.5,4.496,4.495,4.496,4.499,4.503,4.508,4.513,4.518,4.525,4.532,4.542,4.554,4.568,4.586,4.606,4.628,4.652,4.676,4.7,4.723,4.744,4.761,4.776,4.787,4.795,4.801,4.806,4.809,4.812,4.816,4.821,4.827,4.833,4.84,4.847,4.853,4.858,4.86,4.86,4.858,4.853,4.847,4.841,4.834,4.829,4.826,4.827,4.831,4.84,4.854,4.873,4.896,4.925,4.958,4.997,5.041,5.092,5.149,5.215,5.289,5.374,5.468,5.573,5.688,5.813,5.945,6.083,6.225,6.367,6.506,6.64,6.764,6.875,6.97,7.046,7.1,7.129,7.131,7.104,7.045,6.952,6.825,6.662,6.462,6.225,5.953,5.648,5.312,4.95,4.567,4.168,3.762,3.355,2.955,2.571,2.209,1.877,1.58,1.323,1.11,0.943,0.824,0.752,0.727,0.747,0.81,0.911,1.049,1.218,1.414,1.633,1.871,2.123,2.382,2.646,2.908,3.165,3.411,3.643,3.857,4.052,4.224,4.374,4.501,4.606,4.691,4.757,4.808,4.845,4.872,4.89,4.901,4.909,4.913,4.915,4.916,4.916,4.917,4.918,4.92,4.923,4.929,4.937,4.949,4.965,4.985,5.009,5.037,5.069,5.103,5.138,5.173,5.207,5.239,5.268,5.293,5.314,5.332,5.346,5.358,5.368,5.378,5.389,5.4,5.413,5.427,5.442,5.459,5.475,5.492,5.507,5.522,5.535,5.547,5.558,5.569,5.58,5.593,5.606,5.622,5.64,5.66,5.682,5.705,5.728,5.75,5.77,5.788,5.803,5.816,5.825,5.832,5.838,5.843,5.848,5.853,5.86,5.869,5.879,5.89,5.901,5.912,5.921,5.929,5.933,5.934,5.932,5.927,5.919,5.909,5.898,5.887,5.877,5.868,5.86,5.853,5.847,5.842,5.837,5.831,5.824,5.816,5.805,5.793,5.78,5.766,5.753,5.74,5.729,5.721,5.715,5.711,5.71,5.71,5.712,5.713,5.714,5.714,5.712,5.708,5.702,5.695,5.687,5.679,5.671,5.665,5.661,5.659,5.658,5.66,5.662,5.664,5.666,5.666,5.665,5.662,5.657,5.65,5.642,5.634,5.626,5.62,5.616,5.615,5.616,5.621,5.627,5.636,5.646,5.655,5.664,5.672,5.678,5.683,5.686,5.687,5.688,5.689,5.69,5.692,5.695,5.698,5.703,5.707,5.711,5.712,5.712,5.709,5.702,5.691,5.677,5.661,5.641,5.621,5.599,5.578,5.557,5.536,5.516,5.496,5.475,5.453,5.429,5.402,5.371,5.337,5.298,5.257,5.212,5.165,5.117,5.068,5.02,4.973,4.927,4.882,4.839,4.797,4.755,4.712,4.669,4.625,4.579,4.533,4.486,4.438,4.392,4.347,4.305,4.266,4.23,4.197,4.168,4.141,4.116,4.092,4.069,4.046,4.023,3.998,3.973,3.948,3.923,3.899,3.877,3.857,3.84,3.826,3.815,3.806,3.799,3.793,3.786,3.78,3.772,3.763,3.752,3.741,3.729,3.717,3.707,3.698,3.693,3.691,3.693,3.698,3.706,3.717,3.73,3.744,3.758,3.772,3.786,3.799,3.811,3.824,3.837,3.852,3.868,3.885,3.905,3.926,3.949,3.972,3.994,4.016,4.035,4.051,4.064,4.074,4.081,4.086,4.089,4.091,4.094,4.098,4.105,4.113,4.125,4.139,4.155,4.172,4.189,4.206,4.222,4.237,4.25,4.261,4.271,4.279,4.287,4.295,4.304,4.312,4.322,4.331,4.34,4.348,4.354,4.357,4.358,4.354,4.347,4.337,4.324,4.309,4.293,4.277,4.261,4.248,4.237,4.229,4.222,4.218,4.216,4.214,4.213,4.211,4.208,4.205,4.201,4.197,4.193,4.191,4.19,4.192,4.197,4.205,4.216,4.23,4.245,4.261,4.277,4.292,4.306,4.318,4.329,4.338,4.346,4.354,4.362,4.372,4.383,4.396,4.411,4.427,4.445,4.463,4.481,4.497,4.511,4.522,4.53,4.536,4.539,4.54,4.541,4.541,4.542,4.545,4.55,4.558,4.567,4.578,4.59,4.603,4.615,4.626,4.635,4.643,4.649,4.654,4.658,4.663,4.668,4.674,4.683,4.694,4.706,4.72,4.735,4.751,4.766,4.781,4.793,4.804,4.814,4.822,4.829,4.836,4.843,4.852,4.863,4.876,4.891,4.908,4.927,4.946,4.966,4.984,5.001,5.015,5.026,5.035,5.04,5.044,5.047,5.048,5.05,5.052,5.055,5.058,5.062,5.066,5.069,5.07,5.07,5.067,5.061,5.052,5.04,5.027,5.012,4.997,4.983,4.971,4.96,4.952,4.946,4.942,4.939,4.937,4.935,4.931,4.926,4.918,4.908,4.896,4.882,4.867,4.852,4.837,4.823,4.811,4.8,4.791,4.784,4.778,4.772,4.767,4.761,4.755,4.748,4.741,4.733,4.727,4.722,4.72,4.72,4.723,4.73,4.741,4.753,4.768,4.784,4.8,4.814,4.827,4.836,4.843,4.846,4.847,4.846,4.843,4.84,4.837,4.834,4.833,4.833,4.835,4.837,4.84,4.842,4.843,4.843,4.841,4.838,4.833,4.827,4.821,4.815,4.811,4.808,4.807,4.808,4.811,4.815,4.82,4.825,4.829,4.832,4.832,4.83,4.826,4.819,4.812,4.803,4.795,4.788,4.783,4.779,4.778,4.778,4.779,4.781,4.782,4.782,4.78,4.777,4.771,4.763,4.753,4.743,4.733,4.723,4.716,4.711,4.708,4.708,4.711,4.716,4.722,4.729,4.735,4.741,4.745,4.749,4.751,4.752,4.753,4.755,4.758,4.762,4.769,4.777,4.787,4.798,4.81,4.822,4.833,4.842,4.848,4.852,4.854,4.854,4.851,4.848,4.845,4.843,4.842,4.842,4.845,4.848,4.853,4.858,4.863,4.867,4.869,4.869,4.867,4.864,4.859,4.853,4.847,4.843,4.84,4.839,4.841,4.846,4.853,4.861,4.871,4.881,4.89,4.899,4.905,4.911,4.915,4.918,4.92,4.922,4.925,4.929,4.935,4.941,4.948,4.956,4.964,4.97,4.975,4.977,4.977,4.974,4.967,4.959,4.949,4.938,4.928,4.919,4.911,4.906,4.902,4.901,4.901,4.902,4.904,4.904,4.904,4.902,4.898,4.893,4.887,4.88,4.874,4.869,4.866,4.866,4.867,4.872,4.879,4.887,4.896,4.906,4.914,4.921,4.927,4.931,4.933,4.934,4.935,4.935,4.937,4.94,4.944,4.951,4.958,4.967,4.976,4.985,4.992,4.998,5.002,5.004,5.003,5.001,4.999,4.996,4.995,4.995,4.998,5.003,5.011,5.021,5.033,5.045,5.056,5.066,5.073,5.078,5.079,5.077,5.072,5.064,5.055,5.046,5.037,5.028,5.021,5.016,5.011,5.008,5.006,5.004,5.001,4.997,4.992,4.986,4.98,4.973,4.968,4.964,4.962,4.963,4.968,4.976,4.988,5.003,5.02,5.038,5.057,5.075,5.093,5.109,5.123,5.136,5.148,5.16,5.171,5.182,5.194,5.207,5.22,5.233,5.246,5.256,5.264,5.269,5.269,5.265,5.255,5.242,5.225,5.204,5.181,5.157,5.133,5.109,5.086,5.064,5.043,5.023,5.003,4.982,4.961,4.938,4.914,4.888,4.861,4.834,4.807,4.78,4.756,4.734,4.715,4.698,4.685,4.673,4.663,4.654,4.646,4.637,4.627,4.616,4.604,4.593,4.581,4.572,4.564,4.559,4.558,4.56,4.567,4.577,4.589,4.604,4.62,4.636,4.651,4.665,4.678,4.689,4.698,4.707,4.715,4.723,4.733,4.743,4.755,4.769,4.783,4.797,4.812,4.825,4.837,4.846,4.853,4.858,4.861,4.862,4.863,4.864,4.866,4.87,4.876,4.884,4.895,4.908,4.923,4.94,4.958,4.978,4.999,5.022,5.047,5.077,5.111,5.151,5.2,5.256,5.323,5.399,5.486,5.582,5.686,5.797,5.913,6.033,6.154,6.274,6.391,6.504,6.609,6.706,6.792,6.864,6.922,6.962,6.982,6.979,6.95,6.892,6.804,6.683,6.528,6.339,6.115,5.859,5.573,5.261,4.927,4.577,4.216,3.851,3.488,3.133,2.792,2.471,2.175,1.908,1.673,1.474,1.314,1.193,1.112,1.072,1.072,1.112,1.189,1.301,1.444,1.614,1.808,2.019,2.242,2.473,2.705,2.934,3.157,3.368,3.565,3.747,3.911,4.059,4.189,4.303,4.401,4.486,4.558,4.618,4.668,4.709,4.742,4.768,4.787,4.801,4.81,4.817,4.821,4.826,4.831,4.839,4.85,4.865,4.885,4.909,4.936,4.966,4.998,5.03,5.062,5.091,5.117,5.139,5.157,5.172,5.183,5.191,5.198,5.203,5.208,5.214,5.22,5.227,5.235,5.244,5.253,5.262,5.27,5.278,5.286,5.294,5.303,5.313,5.326,5.342,5.362,5.385,5.413,5.443,5.476,5.511,5.546,5.58,5.612,5.641,5.667,5.688,5.706,5.719,5.73,5.739,5.746,5.752,5.758,5.765,5.771,5.778,5.784,5.789,5.793,5.795,5.795,5.793,5.788,5.782,5.776,5.769,5.764,5.759,5.757,5.758,5.761,5.765,5.771,5.778,5.785,5.79,5.793,5.794,5.793,5.789,5.783,5.775,5.767,5.759,5.751,5.745,5.741,5.739,5.739,5.74,5.742,5.745,5.747,5.749,5.749,5.749,5.749,5.748,5.748,5.748,5.751,5.755,5.762,5.771,5.782,5.793,5.806,5.818,5.828,5.837,5.843,5.847,5.848,5.847,5.844,5.841,5.837,5.835,5.834,5.835,5.839,5.843,5.849,5.856,5.863,5.868,5.872,5.873,5.872,5.869,5.864,5.856,5.848,5.839,5.83,5.821,5.813,5.805,5.796,5.787,5.777,5.764,5.749,5.731,5.71,5.686,5.66,5.632,5.604,5.576,5.549,5.524,5.501,5.48,5.461,5.444,5.427,5.41,5.391,5.37,5.346,5.319,5.288,5.254,5.217,5.178,5.138,5.096,5.054,5.012,4.969,4.927,4.883,4.839,4.793,4.745,4.694,4.641,4.585,4.528,4.469,4.41,4.353,4.297,4.244,4.195,4.15,4.109,4.072,4.039,4.008,3.979,3.952,3.925,3.898,3.871,3.844,3.818,3.792,3.768,3.746,3.726,3.709,3.695,3.684,3.674,3.667,3.66,3.654,3.648,3.641,3.634,3.627,3.619,3.613,3.608,3.605,3.606,3.609,3.616,3.626,3.639,3.654,3.669,3.685,3.699,3.71,3.72,3.726,3.73,3.732,3.732,3.731,3.73,3.731,3.734,3.739,3.746,3.756,3.767,3.78,3.794,3.807,3.82,3.832,3.843,3.852,3.861,3.87,3.879,3.889,3.9,3.912,3.926,3.941,3.956,3.971,3.984,3.994,4.002,4.006,4.005,4.001,3.994,3.984,3.973,3.961,3.95,3.94,3.932,3.927,3.924,3.924,3.925,3.927,3.929,3.931,3.933,3.933,3.931,3.929,3.927,3.924,3.921,3.92,3.919,3.919,3.92,3.921,3.922,3.922,3.919,3.915,3.907,3.897,3.884,3.87,3.854,3.839,3.825,3.813,3.804,3.8,3.8,3.805,3.814,3.826,3.841,3.858,3.876,3.895,3.913,3.932,3.95,3.967,3.986,4.005,4.025,4.046,4.069,4.092,4.117,4.141,4.164,4.185,4.204,4.22,4.233,4.242,4.248,4.251,4.253,4.255,4.258,4.262,4.268,4.276,4.288,4.302,4.317,4.334,4.351,4.368,4.383,4.398,4.41,4.422,4.432,4.442,4.453,4.465,4.479,4.495,4.513,4.533,4.555,4.578,4.6,4.622,4.642,4.659,4.674,4.686,4.696,4.704,4.71,4.716,4.722,4.729,4.736,4.745,4.754,4.764,4.773,4.782,4.789,4.794,4.796,4.796,4.795,4.792,4.788,4.785,4.783,4.783,4.786,4.791,4.799,4.81,4.823,4.836,4.849,4.861,4.872,4.879,4.885,4.887,4.888,4.886,4.883,4.879,4.876,4.872,4.869,4.866,4.863,4.86,4.855,4.849,4.841,4.83,4.818,4.804,4.788,4.772,4.757,4.743,4.731,4.722,4.716,4.712,4.712,4.713,4.716,4.719,4.721,4.721,4.719,4.715,4.709,4.701,4.691,4.681,4.67,4.661,4.653,4.647,4.642,4.639,4.637,4.635,4.632,4.627,4.621,4.612,4.601,4.588,4.573,4.556,4.54,4.524,4.508,4.494,4.482,4.471,4.461,4.452,4.442,4.431,4.418,4.404,4.387,4.368,4.347,4.326,4.304,4.284,4.265,4.249,4.235,4.224,4.216,4.21,4.205,4.202,4.198,4.193,4.188,4.18,4.172,4.163,4.153,4.144,4.136,4.13,4.125,4.123,4.124,4.126,4.13,4.134,4.138,4.142,4.145,4.146,4.147,4.146,4.146,4.146,4.147,4.151,4.157,4.167,4.18,4.196,4.214,4.234,4.254,4.275,4.294,4.312,4.328,4.342,4.354,4.364,4.374,4.384,4.394,4.406,4.419,4.434,4.449,4.466,4.482,4.498,4.512,4.525,4.535,4.542,4.548,4.551,4.554,4.557,4.561,4.566,4.573,4.582,4.594,4.607,4.621,4.636,4.65,4.662,4.672,4.68,4.685,4.687,4.687,4.686,4.684,4.682,4.68,4.679,4.68,4.681,4.683,4.684,4.685,4.684,4.68,4.674,4.664,4.651,4.636,4.619,4.6,4.581,4.564,4.547,4.533,4.52,4.51,4.502,4.495,4.489,4.483,4.476,4.468,4.459,4.449,4.438,4.427,4.416,4.406,4.397,4.391,4.385,4.382,4.379,4.377,4.374,4.37,4.364,4.356,4.345,4.331,4.316,4.299,4.282,4.265,4.25,4.237,4.227,4.221,4.217,4.216,4.217,4.219,4.222,4.225,4.227,4.228,4.228,4.228,4.227,4.226,4.226,4.228,4.232,4.239,4.247,4.258,4.27,4.282,4.294,4.305,4.314,4.32,4.325,4.327,4.327,4.327,4.326,4.327,4.329,4.334,4.341,4.351,4.364,4.379,4.395,4.412,4.428,4.444,4.459,4.473,4.486,4.499,4.511,4.524,4.538,4.554,4.573,4.594,4.617,4.642,4.669,4.696,4.723,4.749,4.774,4.797,4.818,4.838,4.857,4.875,4.893,4.911,4.93,4.95,4.969,4.989,5.006,5.022,5.034,5.041,5.044,5.04,5.032,5.017,4.998,4.975,4.949,4.922,4.893,4.865,4.837,4.809,4.783,4.756,4.73,4.702,4.673,4.643,4.61,4.575,4.538,4.5,4.462,4.424,4.388,4.354,4.322,4.294,4.268,4.244,4.222,4.202,4.182,4.162,4.141,4.12,4.099,4.078,4.058,4.04,4.024,4.011,4.002,3.997,3.997,4,4.006,4.015,4.025,4.036,4.047,4.057,4.067,4.075,4.084,4.093,4.102,4.113,4.126,4.142,4.161,4.181,4.205,4.229,4.254,4.279,4.303,4.325,4.345,4.363,4.379,4.394,4.408,4.422,4.437,4.454,4.473,4.495,4.519,4.547,4.577,4.609,4.643,4.68,4.719,4.76,4.804,4.853,4.906,4.965,5.03,5.104,5.185,5.275,5.372,5.476,5.585,5.698,5.813,5.928,6.04,6.147,6.247,6.339,6.42,6.489,6.544,6.583,6.605,6.607,6.588,6.545,6.477,6.381,6.257,6.101,5.915,5.698,5.451,5.177,4.878,4.559,4.223,3.877,3.526,3.176,2.833,2.502,2.189,1.899,1.635,1.402,1.201,1.035,0.906,0.814,0.76,0.744,0.764,0.82,0.909,1.029,1.176,1.347,1.538,1.742,1.956,2.175,2.392,2.605,2.809,3,3.176,3.336,3.479,3.604,3.713,3.806,3.886,3.953,4.009,4.056,4.095,4.128,4.155,4.176,4.193,4.207,4.218,4.227,4.234,4.241,4.249,4.259,4.271,4.285,4.303,4.324,4.347,4.371,4.397,4.422,4.445,4.466,4.484,4.499,4.51,4.518,4.524,4.528,4.531,4.535,4.54,4.547,4.555,4.565,4.578,4.591,4.605,4.62,4.634,4.648,4.662,4.676,4.69,4.705,4.722,4.741,4.763,4.789,4.817,4.849,4.884,4.919,4.956,4.991,5.025,5.057,5.086,5.112,5.134,5.154,5.171,5.186,5.201,5.215,5.228,5.241,5.254,5.266,5.276,5.283,5.288,5.289,5.286,5.278,5.267,5.252,5.235,5.215,5.196,5.176,5.158,5.14,5.125,5.112,5.1,5.089,5.079,5.069,5.059,5.048,5.037,5.026,5.015,5.005,4.997,4.991,4.989,4.99,4.995,5.002,5.013,5.025,5.038,5.051,5.062,5.072,5.08,5.085,5.088,5.089,5.088,5.086,5.085,5.084,5.085,5.086,5.089,5.093,5.098,5.102,5.106,5.108,5.11,5.11,5.109,5.107,5.105,5.105,5.106,5.11,5.116,5.126,5.139,5.154,5.171,5.189,5.206,5.222,5.235,5.245,5.252,5.255,5.254,5.25,5.244,5.237,5.228,5.219,5.211,5.202,5.193,5.184,5.174,5.163,5.15,5.135,5.118,5.098,5.078,5.056,5.034,5.012,4.992,4.973,4.956,4.941,4.927,4.913,4.898,4.881,4.861,4.836,4.806,4.77,4.728,4.681,4.627,4.57,4.509,4.445,4.379,4.313,4.246,4.178,4.111,4.044,3.976,3.908,3.839,3.769,3.699,3.63,3.562,3.495,3.432,3.372,3.317,3.267,3.221,3.181,3.145,3.113,3.083,3.055,3.028,3,2.972,2.944,2.914,2.885,2.856,2.828,2.803,2.78,2.761,2.745,2.733,2.724,2.717,2.713,2.71,2.708,2.707,2.706,2.705,2.705,2.707,2.71,2.716,2.726,2.74,2.757,2.779,2.804,2.832,2.862,2.892,2.923,2.952,2.98,3.006,3.03,3.052,3.073,3.093,3.112,3.132,3.153,3.174,3.196,3.218,3.24,3.261,3.279,3.295,3.307,3.316,3.321,3.323,3.323,3.32,3.317,3.314,3.312,3.31,3.311,3.312,3.315,3.318,3.321,3.323,3.323,3.322,3.318,3.312,3.305,3.296,3.286,3.277,3.267,3.259,3.251,3.244,3.237,3.23,3.221,3.21,3.197,3.179,3.158,3.133,3.104,3.073,3.039,3.005,2.971,2.938,2.908,2.88,2.855,2.833,2.814,2.798,2.783,2.771,2.759,2.749,2.74,2.733,2.728,2.726,2.728,2.735,2.746,2.762,2.784,2.809,2.839,2.871,2.905,2.939,2.972,3.005,3.035,3.064,3.091,3.116,3.14,3.165,3.19,3.217,3.245,3.275,3.307,3.339,3.372,3.405,3.437,3.467,3.496,3.523,3.548,3.573,3.596,3.62,3.644,3.669,3.696,3.725,3.755,3.785,3.815,3.844,3.87,3.893,3.912,3.926,3.936,3.941,3.942,3.94,3.936,3.93,3.924,3.918,3.912,3.907,3.903,3.898,3.894,3.888,3.882,3.874,3.865,3.854,3.843,3.832,3.823,3.815,3.81,3.808,3.809,3.814,3.821,3.831,3.843,3.854,3.866,3.875,3.883,3.889,3.892,3.893,3.893,3.892,3.891,3.89,3.89,3.892,3.895,3.899,3.903,3.907,3.911,3.913,3.914,3.914,3.911,3.908,3.905,3.902,3.901,3.902,3.905,3.912,3.922,3.935,3.951,3.967,3.985,4.002,4.018,4.032,4.043,4.052,4.058,4.062,4.064,4.066,4.068,4.069,4.072,4.075,4.078,4.082,4.086,4.089,4.09,4.09,4.089,4.086,4.082,4.077,4.073,4.07,4.069,4.07,4.075,4.083,4.094,4.107,4.121,4.136,4.15,4.162,4.171,4.177,4.18,4.179,4.174,4.166,4.157,4.146,4.134,4.122,4.109,4.096,4.083,4.069,4.053,4.035,4.015,3.992,3.966,3.938,3.908,3.877,3.845,3.815,3.786,3.759,3.734,3.712,3.693,3.675,3.659,3.643,3.626,3.609,3.59,3.57,3.549,3.528,3.506,3.486,3.468,3.452,3.44,3.431,3.426,3.424,3.425,3.428,3.432,3.436,3.44,3.443,3.445,3.446,3.447,3.448,3.45,3.453,3.458,3.465,3.474,3.486,3.498,3.512,3.526,3.539,3.552,3.562,3.571,3.579,3.585,3.591,3.597,3.604,3.613,3.624,3.637,3.652,3.67,3.689,3.708,3.727,3.744,3.76,3.773,3.783,3.79,3.796,3.799,3.802,3.804,3.807,3.811,3.816,3.822,3.829,3.837,3.845,3.852,3.857,3.861,3.863,3.864,3.863,3.862,3.861,3.861,3.863,3.867,3.873,3.882,3.893,3.906,3.919,3.932,3.943,3.952,3.958,3.96,3.959,3.954,3.947,3.938,3.928,3.917,3.906,3.896,3.888,3.879,3.872,3.865,3.857,3.848,3.837,3.825,3.811,3.795,3.779,3.762,3.745,3.731,3.717,3.707,3.699,3.693,3.689,3.686,3.683,3.68,3.675,3.669,3.66,3.649,3.636,3.622,3.608,3.594,3.582,3.572,3.566,3.562,3.563,3.567,3.574,3.584,3.595,3.607,3.62,3.633,3.646,3.659,3.673,3.688,3.704,3.721,3.74,3.761,3.783,3.806,3.828,3.849,3.867,3.883,3.894,3.901,3.903,3.901,3.896,3.887,3.876,3.865,3.853,3.841,3.83,3.82,3.809,3.799,3.787,3.774,3.757,3.738,3.714,3.687,3.656,3.623,3.587,3.551,3.515,3.48,3.447,3.417,3.389,3.365,3.344,3.325,3.309,3.294,3.282,3.272,3.264,3.259,3.257,3.259,3.265,3.275,3.29,3.31,3.333,3.359,3.387,3.415,3.441,3.466,3.486,3.502,3.513,3.52,3.521,3.518,3.513,3.504,3.494,3.483,3.472,3.461,3.45,3.439,3.427,3.415,3.402,3.387,3.371,3.355,3.338,3.323,3.309,3.297,3.29,3.287,3.29,3.297,3.31,3.329,3.351,3.378,3.409,3.443,3.479,3.519,3.562,3.61,3.662,3.721,3.787,3.86,3.942,4.032,4.13,4.235,4.346,4.461,4.577,4.694,4.808,4.917,5.018,5.11,5.19,5.257,5.309,5.343,5.358,5.352,5.322,5.267,5.185,5.074,4.932,4.759,4.555,4.321,4.057,3.768,3.456,3.127,2.786,2.439,2.093,1.753,1.426,1.119,0.835,0.58,0.358,0.171,0.022,-0.088,-0.16,-0.192,-0.185,-0.141,-0.06,0.052,0.197,0.369,0.565,0.781,1.011,1.251,1.495,1.74,1.979,2.21,2.427,2.629,2.813,2.978,3.123,3.249,3.357,3.447,3.521,3.582,3.63,3.667,3.695,3.715,3.727,3.732,3.732,3.728,3.719,3.708,3.696,3.683,3.671,3.661,3.655,3.651,3.652,3.656,3.664,3.674,3.686,3.698,3.71,3.721,3.729,3.735,3.738,3.74,3.739,3.738,3.738,3.738,3.74,3.744,3.751,3.76,3.771,3.784,3.797,3.812,3.826,3.839,3.852,3.864,3.876,3.887,3.9,3.914,3.93,3.947,3.966,3.987,4.008,4.03,4.05,4.069,4.085,4.098,4.107,4.113,4.115,4.115,4.112,4.108,4.104,4.1,4.096,4.094,4.092,4.09,4.089,4.087,4.083,4.077,4.069,4.058,4.044,4.029,4.013,3.996,3.979,3.964,3.951,3.939,3.931,3.925,3.92,3.917,3.914,3.91,3.906,3.9,3.893,3.885,3.877,3.868,3.861,3.854,3.851,3.85,3.852,3.857,3.864,3.874,3.885,3.896,3.907,3.918,3.927,3.935,3.943,3.949,3.956,3.964,3.973,3.985,3.998,4.015,4.033,4.053,4.074,4.095,4.116,4.135,4.152,4.168,4.181,4.193,4.204,4.216,4.228,4.243,4.26,4.279,4.301,4.326,4.352,4.38,4.407,4.432,4.456,4.477,4.495,4.51,4.522,4.532,4.54,4.547,4.555,4.562,4.57,4.579,4.588,4.597,4.605,4.61,4.614,4.613,4.609,4.601,4.59,4.574,4.556,4.535,4.513,4.49,4.466,4.441,4.415,4.388,4.359,4.327,4.291,4.251,4.206,4.156,4.101,4.04,3.976,3.909,3.839,3.767,3.695,3.622,3.55,3.478,3.407,3.335,3.264,3.191,3.119,3.045,2.971,2.897,2.824,2.752,2.683,2.618,2.556,2.499,2.447,2.399,2.355,2.314,2.276,2.238,2.201,2.164,2.126,2.087,2.047,2.008,1.969,1.931,1.896,1.864,1.835,1.811,1.79,1.773,1.759,1.747,1.737,1.728,1.72,1.712,1.704,1.697,1.691,1.686,1.684,1.685,1.69,1.698,1.709,1.724,1.741,1.761,1.781,1.801,1.822,1.842,1.861,1.88,1.898,1.917,1.938,1.961,1.986,2.014,2.045,2.078,2.114,2.152,2.189,2.227,2.263,2.297,2.329,2.358,2.385,2.41,2.434,2.457,2.481,2.506,2.531,2.559,2.587,2.616,2.645,2.673,2.699,2.723,2.744,2.761,2.775,2.786,2.795,2.802,2.808,2.815,2.821,2.829,2.838,2.847,2.856,2.865,2.872,2.878,2.88,2.88,2.875,2.868,2.857,2.844,2.829,2.813,2.797,2.78,2.765,2.749,2.734,2.719,2.702,2.685,2.665,2.643,2.619,2.593,2.565,2.536,2.507,2.479,2.453,2.43,2.409,2.392,2.379,2.368,2.359,2.353,2.347,2.342,2.336,2.331,2.325,2.319,2.314,2.31,2.308,2.309,2.313,2.32,2.331,2.344,2.36,2.376,2.394,2.41,2.425,2.439,2.449,2.458,2.465,2.471,2.476,2.482,2.488,2.496,2.506,2.517,2.53,2.544,2.559,2.573,2.585,2.596,2.605,2.612,2.617,2.621,2.624,2.627,2.631,2.636,2.643,2.651,2.662,2.673,2.685,2.696,2.706,2.715,2.721,2.725,2.727,2.726,2.724,2.722,2.72,2.72,2.721,2.724,2.73,2.737,2.746,2.756,2.766,2.775,2.783,2.789,2.793,2.795,2.796,2.795,2.794,2.794,2.795,2.797,2.801,2.807,2.815,2.823,2.831,2.838,2.843,2.847,2.848,2.846,2.842,2.836,2.829,2.821,2.814,2.807,2.801,2.797,2.794,2.792,2.79,2.788,2.785,2.78,2.773,2.763,2.752,2.739,2.725,2.712,2.699,2.688,2.679,2.673,2.669,2.669,2.671,2.674,2.679,2.684,2.689,2.693,2.697,2.7,2.703,2.706,2.711,2.717,2.726,2.738,2.753,2.77,2.79,2.811,2.833,2.855,2.875,2.894,2.91,2.923,2.934,2.943,2.95,2.957,2.963,2.969,2.976,2.983,2.991,2.999,3.007,3.013,3.017,3.018,3.016,3.011,3.002,2.99,2.976,2.96,2.943,2.927,2.911,2.896,2.882,2.869,2.856,2.844,2.83,2.815,2.798,2.779,2.757,2.733,2.708,2.682,2.655,2.63,2.606,2.585,2.567,2.551,2.538,2.527,2.518,2.509,2.501,2.493,2.485,2.477,2.468,2.46,2.453,2.448,2.446,2.446,2.45,2.457,2.467,2.48,2.494,2.509,2.523,2.536,2.548,2.557,2.564,2.569,2.572,2.574,2.576,2.579,2.582,2.587,2.593,2.6,2.607,2.615,2.623,2.629,2.633,2.636,2.636,2.635,2.634,2.632,2.631,2.632,2.635,2.641,2.651,2.664,2.68,2.698,2.718,2.738,2.758,2.777,2.793,2.808,2.82,2.831,2.84,2.848,2.855,2.863,2.872,2.881,2.89,2.9,2.91,2.918,2.925,2.93,2.932,2.931,2.928,2.923,2.917,2.911,2.905,2.901,2.898,2.897,2.899,2.902,2.907,2.912,2.916,2.919,2.919,2.916,2.909,2.899,2.886,2.87,2.852,2.833,2.814,2.794,2.775,2.757,2.74,2.722,2.705,2.686,2.667,2.647,2.625,2.602,2.579,2.556,2.534,2.514,2.497,2.484,2.474,2.468,2.466,2.467,2.47,2.474,2.478,2.481,2.483,2.482,2.48,2.475,2.468,2.46,2.452,2.444,2.438,2.432,2.429,2.426,2.425,2.424,2.423,2.421,2.419,2.415,2.41,2.405,2.399,2.394,2.391,2.391,2.394,2.4,2.411,2.426,2.444,2.465,2.487,2.511,2.534,2.557,2.577,2.596,2.613,2.627,2.64,2.653,2.665,2.677,2.69,2.703,2.717,2.732,2.746,2.759,2.771,2.782,2.79,2.798,2.804,2.81,2.816,2.824,2.834,2.847,2.865,2.886,2.911,2.94,2.971,3.004,3.037,3.069,3.099,3.127,3.15,3.17,3.187,3.2,3.21,3.218,3.224,3.228,3.232,3.234,3.235,3.233,3.229,3.221,3.21,3.193,3.172,3.146,3.116,3.082,3.046,3.007,2.968,2.929,2.89,2.853,2.816,2.781,2.745,2.71,2.673,2.636,2.597,2.556,2.514,2.472,2.43,2.388,2.349,2.312,2.278,2.249,2.223,2.202,2.184,2.168,2.155,2.143,2.131,2.12,2.109,2.097,2.087,2.077,2.069,2.063,2.06,2.061,2.064,2.07,2.079,2.089,2.1,2.111,2.121,2.129,2.134,2.138,2.14,2.14,2.139,2.139,2.139,2.141,2.146,2.152,2.161,2.172,2.184,2.197,2.21,2.222,2.232,2.241,2.25,2.257,2.264,2.272,2.283,2.296,2.313,2.336,2.363,2.396,2.436,2.48,2.531,2.587,2.649,2.716,2.789,2.869,2.956,3.052,3.156,3.269,3.391,3.523,3.662,3.808,3.958,4.11,4.26,4.405,4.543,4.668,4.777,4.868,4.937,4.982,5,4.989,4.947,4.874,4.768,4.628,4.453,4.244,4,3.724,3.417,3.082,2.723,2.343,1.95,1.549,1.147,0.752,0.37,0.008,-0.325,-0.628,-0.893,-1.118,-1.299,-1.436,-1.528,-1.576,-1.581,-1.545,-1.472,-1.363,-1.223,-1.055,-0.863,-0.652,-0.425,-0.187,0.057,0.303,0.546,0.783,1.008,1.219,1.412,1.586,1.739,1.872,1.983,2.075,2.149,2.208,2.253,2.287,2.311,2.329,2.342,2.351,2.357,2.36,2.362,2.363,2.363,2.362,2.362,2.363,2.365,2.37,2.377,2.388,2.403,2.422,2.444,2.469,2.495,2.523,2.55,2.575,2.599,2.619,2.637,2.651,2.662,2.672,2.68,2.687,2.695,2.703,2.713,2.724,2.736,2.749,2.762,2.775,2.787,2.797,2.806,2.813,2.818,2.821,2.824,2.827,2.831,2.835,2.841,2.848,2.856,2.865,2.873,2.881,2.887,2.891,2.893,2.892,2.889,2.885,2.879,2.874,2.869,2.866,2.865,2.867,2.871,2.878,2.886,2.895,2.904,2.912,2.918,2.922,2.923,2.922,2.919,2.913,2.907,2.901,2.895,2.89,2.887,2.885,2.884,2.884,2.884,2.884,2.883,2.881,2.878,2.873,2.867,2.861,2.855,2.85,2.848,2.848,2.851,2.857,2.866,2.877,2.889,2.902,2.915,2.927,2.937,2.945,2.951,2.955,2.958,2.961,2.963,2.967,2.971,2.976,2.983,2.991,2.998,3.005,3.01,3.013,3.013,3.01,3.004,2.995,2.984,2.971,2.958,2.947,2.937,2.93,2.926,2.926,2.929,2.934,2.942,2.952,2.962,2.972,2.982,2.992,3.001,3.009,3.018,3.027,3.037,3.048,3.06,3.073,3.086,3.098,3.108,3.115,3.119,3.117,3.11,3.097,3.078,3.053,3.024,2.991,2.954,2.916,2.875,2.834,2.792,2.749,2.705,2.66,2.613,2.563,2.51,2.454,2.395,2.334,2.272,2.208,2.145,2.084,2.025,1.969,1.917,1.869,1.824,1.783,1.744,1.706,1.67,1.633,1.596,1.558,1.52,1.481,1.442,1.404,1.367,1.332,1.298,1.266,1.235,1.206,1.177,1.148,1.118,1.086,1.053,1.018,0.982,0.946,0.909,0.874,0.841,0.812,0.786,0.766,0.751,0.74,0.734,0.731,0.732,0.735,0.739,0.745,0.75,0.756,0.763,0.771,0.78,0.79,0.803,0.818,0.835,0.854,0.874,0.894,0.914,0.933,0.95,0.964,0.975,0.983,0.988,0.992,0.994,0.996,0.999,1.004,1.01,1.019,1.03,1.043,1.057,1.072,1.086,1.1,1.112,1.121,1.129,1.135,1.139,1.143,1.146,1.15,1.155,1.161,1.167,1.175,1.183,1.191,1.197,1.201,1.203,1.202,1.197,1.19,1.181,1.17,1.157,1.145,1.134,1.124,1.116,1.109,1.104,1.1,1.097,1.094,1.09,1.086,1.08,1.073,1.066,1.058,1.052,1.047,1.043,1.043,1.046,1.052,1.06,1.07,1.082,1.093,1.104,1.113,1.12,1.124,1.125,1.123,1.12,1.115,1.111,1.106,1.103,1.102,1.102,1.104,1.108,1.113,1.118,1.124,1.129,1.133,1.136,1.139,1.142,1.146,1.151,1.158,1.168,1.181,1.198,1.218,1.24,1.264,1.29,1.315,1.339,1.362,1.382,1.4,1.416,1.43,1.443,1.454,1.465,1.476,1.488,1.5,1.511,1.523,1.533,1.541,1.546,1.549,1.548,1.544,1.537,1.527,1.516,1.505,1.495,1.487,1.481,1.479,1.481,1.486,1.494,1.504,1.516,1.528,1.54,1.551,1.561,1.569,1.576,1.582,1.587,1.592,1.597,1.602,1.609,1.615,1.622,1.629,1.634,1.637,1.638,1.636,1.631,1.624,1.614,1.603,1.592,1.581,1.572,1.566,1.563,1.564,1.568,1.574,1.583,1.594,1.605,1.615,1.625,1.633,1.639,1.643,1.646,1.648,1.649,1.651,1.652,1.654,1.656,1.658,1.66,1.66,1.659,1.656,1.651,1.643,1.632,1.62,1.607,1.595,1.583,1.574,1.567,1.565,1.566,1.572,1.581,1.592,1.606,1.62,1.634,1.647,1.659,1.668,1.675,1.68,1.684,1.686,1.687,1.689,1.69,1.692,1.695,1.697,1.699,1.7,1.699,1.696,1.691,1.684,1.674,1.663,1.652,1.64,1.629,1.62,1.613,1.609,1.608,1.609,1.611,1.615,1.619,1.621,1.623,1.622,1.619,1.613,1.606,1.597,1.588,1.578,1.57,1.563,1.557,1.554,1.551,1.549,1.548,1.546,1.542,1.538,1.531,1.523,1.513,1.502,1.492,1.482,1.474,1.468,1.464,1.463,1.465,1.468,1.472,1.477,1.481,1.484,1.484,1.483,1.479,1.474,1.467,1.46,1.454,1.449,1.445,1.444,1.446,1.45,1.456,1.464,1.472,1.479,1.486,1.491,1.495,1.496,1.497,1.496,1.495,1.495,1.495,1.496,1.499,1.504,1.509,1.515,1.52,1.525,1.529,1.53,1.53,1.528,1.525,1.521,1.517,1.514,1.514,1.516,1.522,1.53,1.542,1.556,1.572,1.589,1.605,1.621,1.634,1.646,1.656,1.664,1.67,1.675,1.679,1.684,1.689,1.695,1.702,1.708,1.714,1.718,1.72,1.719,1.714,1.705,1.691,1.674,1.654,1.631,1.607,1.582,1.558,1.536,1.515,1.497,1.481,1.467,1.454,1.442,1.431,1.419,1.408,1.396,1.383,1.372,1.361,1.352,1.345,1.34,1.338,1.339,1.342,1.347,1.352,1.356,1.359,1.36,1.357,1.351,1.342,1.329,1.314,1.296,1.278,1.26,1.242,1.225,1.209,1.195,1.182,1.17,1.159,1.147,1.135,1.122,1.11,1.097,1.086,1.076,1.069,1.065,1.065,1.069,1.078,1.09,1.107,1.126,1.146,1.167,1.188,1.207,1.223,1.237,1.249,1.258,1.266,1.273,1.279,1.285,1.292,1.299,1.307,1.315,1.322,1.329,1.335,1.338,1.339,1.338,1.334,1.33,1.325,1.32,1.316,1.315,1.316,1.321,1.33,1.341,1.356,1.372,1.39,1.408,1.426,1.443,1.459,1.473,1.486,1.498,1.509,1.52,1.532,1.543,1.555,1.567,1.577,1.587,1.594,1.598,1.599,1.596,1.588,1.576,1.561,1.544,1.524,1.505,1.485,1.468,1.453,1.44,1.431,1.424,1.419,1.416,1.414,1.412,1.409,1.406,1.402,1.398,1.393,1.388,1.384,1.381,1.378,1.378,1.378,1.378,1.379,1.378,1.376,1.371,1.363,1.352,1.337,1.32,1.3,1.28,1.26,1.241,1.225,1.211,1.202,1.196,1.194,1.195,1.199,1.205,1.213,1.221,1.229,1.237,1.246,1.254,1.264,1.274,1.286,1.3,1.316,1.334,1.352,1.372,1.39,1.407,1.422,1.434,1.441,1.445,1.444,1.44,1.432,1.423,1.411,1.399,1.387,1.375,1.364,1.352,1.34,1.327,1.312,1.295,1.275,1.252,1.225,1.195,1.164,1.13,1.097,1.064,1.033,1.005,0.979,0.956,0.937,0.92,0.906,0.894,0.882,0.872,0.863,0.854,0.846,0.841,0.837,0.837,0.84,0.847,0.859,0.875,0.895,0.918,0.943,0.969,0.996,1.021,1.044,1.065,1.083,1.099,1.112,1.122,1.132,1.14,1.147,1.153,1.159,1.164,1.168,1.17,1.169,1.165,1.159,1.149,1.136,1.121,1.104,1.087,1.071,1.058,1.047,1.04,1.038,1.041,1.048,1.061,1.078,1.099,1.123,1.152,1.184,1.22,1.262,1.31,1.365,1.428,1.501,1.584,1.678,1.782,1.896,2.018,2.148,2.283,2.421,2.56,2.697,2.829,2.954,3.069,3.171,3.258,3.328,3.376,3.402,3.401,3.371,3.308,3.211,3.078,2.906,2.695,2.446,2.161,1.841,1.491,1.116,0.722,0.317,-0.092,-0.499,-0.896,-1.274,-1.629,-1.953,-2.242,-2.492,-2.7,-2.864,-2.983,-3.056,-3.083,-3.067,-3.008,-2.909,-2.774,-2.606,-2.409,-2.188,-1.949,-1.697,-1.437,-1.176,-0.919,-0.67,-0.434,-0.214,-0.012,0.168,0.328,0.467,0.585,0.685,0.767,0.834,0.886,0.927,0.958,0.98,0.994,1.002,1.005,1.004,1.001,0.995,0.99,0.985,0.983,0.985,0.991,1.002,1.019,1.041,1.069,1.101,1.135,1.171,1.208,1.243,1.277,1.307,1.334,1.358,1.379,1.397,1.413,1.428,1.443,1.458,1.473,1.489,1.505,1.521,1.536,1.55,1.562,1.573,1.582,1.589,1.595,1.6,1.606,1.613,1.621,1.631,1.644,1.658,1.674,1.691,1.707,1.723,1.736,1.746,1.754,1.757,1.758,1.755,1.75,1.743,1.735,1.727,1.719,1.712,1.705,1.699,1.692,1.685,1.676,1.666,1.653,1.638,1.622,1.603,1.584,1.565,1.547,1.531,1.518,1.508,1.501,1.497,1.496,1.497,1.499,1.5,1.501,1.5,1.497,1.492,1.485,1.477,1.468,1.46,1.453,1.448,1.445,1.445,1.447,1.451,1.456,1.462,1.467,1.472,1.476,1.478,1.478,1.478,1.477,1.476,1.477,1.478,1.482,1.488,1.496,1.505,1.516,1.528,1.54,1.551,1.561,1.57,1.578,1.585,1.592,1.599,1.607,1.617,1.63,1.646,1.664,1.685,1.708,1.732,1.756,1.78,1.802,1.821,1.838,1.852,1.863,1.873,1.88,1.887,1.894,1.9,1.907,1.914,1.921,1.927,1.932,1.935,1.934,1.93,1.922,1.909,1.893,1.873,1.851,1.827,1.802,1.776,1.751,1.726,1.702,1.678,1.653,1.627,1.598,1.567,1.532,1.494,1.452,1.405,1.356,1.305,1.251,1.197,1.143,1.089,1.036,0.983,0.931,0.878,0.825,0.77,0.713,0.655,0.595,0.533,0.469,0.406,0.343,0.282,0.223,0.166,0.113,0.063,0.016,-0.028,-0.071,-0.113,-0.155,-0.197,-0.24,-0.285,-0.33,-0.375,-0.42,-0.463,-0.505,-0.544,-0.579,-0.611,-0.64,-0.665,-0.687,-0.707,-0.725,-0.742,-0.759,-0.775,-0.791,-0.806,-0.82,-0.832,-0.841,-0.846,-0.848,-0.846,-0.84,-0.831,-0.819,-0.804,-0.789,-0.773,-0.759,-0.745,-0.733,-0.722,-0.712,-0.703,-0.694,-0.683,-0.671,-0.656,-0.639,-0.619,-0.596,-0.572,-0.546,-0.52,-0.494,-0.47,-0.448,-0.427,-0.409,-0.393,-0.378,-0.364,-0.349,-0.335,-0.319,-0.302,-0.283,-0.264,-0.245,-0.226,-0.208,-0.192,-0.179,-0.167,-0.158,-0.152,-0.146,-0.142,-0.137,-0.132,-0.124,-0.115,-0.104,-0.091,-0.077,-0.062,-0.047,-0.033,-0.022,-0.013,-0.008,-0.005,-0.005,-0.007,-0.011,-0.016,-0.021,-0.026,-0.029,-0.031,-0.033,-0.034,-0.034,-0.036,-0.038,-0.042,-0.047,-0.055,-0.064,-0.074,-0.085,-0.095,-0.104,-0.111,-0.115,-0.117,-0.116,-0.112,-0.107,-0.101,-0.094,-0.087,-0.081,-0.076,-0.072,-0.069,-0.066,-0.063,-0.059,-0.053,-0.045,-0.036,-0.024,-0.01,0.003,0.018,0.032,0.045,0.056,0.064,0.07,0.073,0.073,0.072,0.07,0.069,0.068,0.069,0.072,0.078,0.085,0.095,0.105,0.116,0.126,0.135,0.143,0.149,0.154,0.157,0.159,0.162,0.164,0.167,0.172,0.178,0.185,0.193,0.202,0.21,0.217,0.222,0.226,0.227,0.227,0.226,0.224,0.223,0.223,0.225,0.23,0.238,0.249,0.263,0.279,0.297,0.315,0.331,0.346,0.359,0.369,0.375,0.378,0.379,0.378,0.375,0.373,0.37,0.368,0.366,0.365,0.364,0.363,0.361,0.358,0.353,0.346,0.338,0.329,0.318,0.308,0.298,0.29,0.283,0.28,0.278,0.28,0.282,0.286,0.29,0.293,0.293,0.292,0.287,0.28,0.269,0.257,0.243,0.229,0.215,0.202,0.191,0.183,0.176,0.172,0.17,0.169,0.168,0.167,0.166,0.164,0.162,0.159,0.157,0.156,0.157,0.16,0.167,0.176,0.188,0.202,0.218,0.236,0.252,0.268,0.282,0.293,0.302,0.308,0.311,0.312,0.311,0.31,0.309,0.308,0.308,0.308,0.309,0.309,0.308,0.306,0.302,0.296,0.286,0.275,0.261,0.246,0.231,0.216,0.202,0.191,0.181,0.174,0.17,0.167,0.166,0.164,0.163,0.159,0.154,0.147,0.137,0.126,0.114,0.102,0.09,0.08,0.071,0.066,0.063,0.062,0.063,0.066,0.069,0.071,0.073,0.073,0.072,0.07,0.066,0.063,0.06,0.058,0.059,0.061,0.066,0.074,0.084,0.095,0.106,0.118,0.128,0.137,0.144,0.15,0.153,0.155,0.157,0.16,0.163,0.168,0.175,0.184,0.195,0.207,0.22,0.233,0.245,0.256,0.265,0.271,0.276,0.278,0.28,0.282,0.283,0.286,0.291,0.298,0.306,0.316,0.327,0.338,0.348,0.356,0.362,0.365,0.364,0.361,0.356,0.349,0.341,0.334,0.327,0.323,0.32,0.319,0.321,0.323,0.327,0.33,0.332,0.333,0.332,0.329,0.324,0.318,0.311,0.304,0.298,0.293,0.29,0.288,0.289,0.29,0.292,0.294,0.295,0.294,0.291,0.284,0.276,0.264,0.251,0.237,0.222,0.208,0.194,0.182,0.17,0.16,0.15,0.141,0.131,0.12,0.108,0.094,0.079,0.062,0.046,0.029,0.014,0.001,-0.008,-0.015,-0.019,-0.019,-0.016,-0.01,-0.004,0.002,0.008,0.013,0.017,0.018,0.018,0.017,0.015,0.013,0.013,0.013,0.016,0.02,0.027,0.035,0.045,0.054,0.063,0.071,0.078,0.082,0.085,0.087,0.087,0.087,0.088,0.09,0.094,0.099,0.106,0.115,0.124,0.135,0.144,0.153,0.16,0.166,0.169,0.172,0.173,0.174,0.177,0.181,0.187,0.196,0.208,0.223,0.24,0.259,0.278,0.297,0.314,0.328,0.34,0.348,0.354,0.356,0.356,0.355,0.353,0.35,0.348,0.345,0.343,0.341,0.339,0.335,0.329,0.321,0.311,0.298,0.282,0.264,0.245,0.226,0.207,0.19,0.174,0.162,0.151,0.144,0.138,0.134,0.131,0.128,0.125,0.12,0.115,0.11,0.104,0.099,0.095,0.093,0.093,0.096,0.103,0.111,0.122,0.135,0.148,0.16,0.171,0.18,0.186,0.189,0.19,0.189,0.186,0.183,0.18,0.178,0.178,0.18,0.183,0.188,0.195,0.202,0.21,0.217,0.225,0.232,0.239,0.246,0.254,0.264,0.276,0.291,0.309,0.33,0.355,0.382,0.41,0.439,0.468,0.494,0.518,0.538,0.555,0.566,0.574,0.578,0.579,0.578,0.575,0.571,0.566,0.559,0.552,0.544,0.533,0.52,0.504,0.484,0.461,0.435,0.406,0.375,0.343,0.31,0.278,0.248,0.22,0.195,0.173,0.152,0.134,0.117,0.1,0.084,0.067,0.05,0.033,0.016,0,-0.015,-0.028,-0.038,-0.045,-0.049,-0.049,-0.046,-0.042,-0.036,-0.03,-0.025,-0.022,-0.021,-0.022,-0.026,-0.033,-0.041,-0.05,-0.059,-0.068,-0.076,-0.083,-0.088,-0.093,-0.097,-0.102,-0.107,-0.113,-0.121,-0.131,-0.142,-0.155,-0.168,-0.181,-0.193,-0.204,-0.212,-0.218,-0.22,-0.22,-0.217,-0.213,-0.207,-0.199,-0.192,-0.183,-0.172,-0.16,-0.144,-0.124,-0.097,-0.063,-0.018,0.035,0.102,0.18,0.27,0.371,0.483,0.603,0.731,0.865,1.003,1.143,1.284,1.424,1.561,1.694,1.82,1.937,2.042,2.132,2.203,2.253,2.277,2.271,2.232,2.157,2.045,1.893,1.702,1.472,1.204,0.903,0.572,0.216,-0.159,-0.549,-0.946,-1.345,-1.738,-2.12,-2.484,-2.825,-3.138,-3.417,-3.659,-3.859,-4.016,-4.126,-4.19,-4.206,-4.175,-4.1,-3.984,-3.83,-3.644,-3.431,-3.196,-2.946,-2.688,-2.425,-2.165,-1.912,-1.668,-1.439,-1.224,-1.027,-0.848,-0.687,-0.545,-0.42,-0.314,-0.224,-0.15,-0.092,-0.048,-0.017,0.002,0.012,0.013,0.009,0.001,-0.007,-0.016,-0.023,-0.026,-0.024,-0.018,-0.007,0.008,0.028,0.05,0.074,0.097,0.12,0.141,0.161,0.178,0.193,0.206,0.219,0.231,0.242,0.254,0.266,0.277,0.288,0.298,0.307,0.313,0.316,0.317,0.315,0.311,0.306,0.301,0.296,0.292,0.291,0.294,0.299,0.308,0.32,0.334,0.35,0.366,0.382,0.397,0.411,0.423,0.433,0.441,0.448,0.455,0.462,0.469,0.477,0.486,0.496,0.506,0.515,0.524,0.53,0.535,0.537,0.537,0.534,0.529,0.523,0.516,0.51,0.505,0.502,0.5,0.501,0.503,0.507,0.51,0.514,0.516,0.516,0.514,0.509,0.502,0.493,0.482,0.471,0.46,0.449,0.44,0.432,0.426,0.421,0.416,0.411,0.406,0.4,0.392,0.383,0.372,0.36,0.349,0.337,0.328,0.321,0.317,0.317,0.321,0.329,0.34,0.353,0.368,0.384,0.4,0.415,0.429,0.441,0.452,0.463,0.472,0.482,0.493,0.505,0.518,0.532,0.547,0.562,0.577,0.59,0.602,0.612,0.62,0.625,0.628,0.63,0.631,0.633,0.636,0.641,0.649,0.66,0.673,0.688,0.704,0.72,0.735,0.749,0.76,0.768,0.772,0.773,0.771,0.767,0.761,0.753,0.745,0.736,0.728,0.718,0.708,0.696,0.681,0.663,0.64,0.614,0.582,0.545,0.504,0.459,0.41,0.359,0.307,0.254,0.2,0.145,0.091,0.035,-0.021,-0.079,-0.14,-0.204,-0.27,-0.339,-0.409,-0.481,-0.553,-0.624,-0.693,-0.759,-0.822,-0.88,-0.934,-0.983,-1.029,-1.072,-1.114,-1.154,-1.194,-1.234,-1.275,-1.316,-1.358,-1.399,-1.44,-1.48,-1.518,-1.554,-1.588,-1.619,-1.649,-1.678,-1.705,-1.733,-1.76,-1.788,-1.817,-1.845,-1.873,-1.899,-1.923,-1.945,-1.962,-1.975,-1.984,-1.988,-1.989,-1.986,-1.98,-1.973,-1.965,-1.958,-1.951,-1.945,-1.94,-1.935,-1.93,-1.924,-1.917,-1.907,-1.895,-1.88,-1.863,-1.843,-1.821,-1.799,-1.777,-1.755,-1.736,-1.718,-1.703,-1.689,-1.678,-1.668,-1.658,-1.649,-1.639,-1.629,-1.618,-1.606,-1.595,-1.584,-1.574,-1.566,-1.561,-1.559,-1.559,-1.562,-1.567,-1.573,-1.579,-1.584,-1.588,-1.588,-1.585,-1.579,-1.569,-1.556,-1.541,-1.525,-1.507,-1.49,-1.474,-1.458,-1.444,-1.431,-1.419,-1.406,-1.394,-1.381,-1.367,-1.352,-1.337,-1.322,-1.308,-1.295,-1.284,-1.277,-1.273,-1.272,-1.274,-1.279,-1.286,-1.294,-1.302,-1.308,-1.312,-1.313,-1.312,-1.307,-1.299,-1.289,-1.277,-1.265,-1.252,-1.241,-1.23,-1.22,-1.211,-1.203,-1.195,-1.186,-1.175,-1.164,-1.15,-1.135,-1.119,-1.102,-1.085,-1.069,-1.055,-1.043,-1.035,-1.029,-1.025,-1.024,-1.025,-1.026,-1.027,-1.027,-1.026,-1.023,-1.018,-1.012,-1.005,-0.997,-0.99,-0.984,-0.979,-0.976,-0.974,-0.974,-0.974,-0.974,-0.973,-0.97,-0.965,-0.957,-0.946,-0.934,-0.919,-0.904,-0.888,-0.874,-0.862,-0.852,-0.845,-0.84,-0.839,-0.839,-0.84,-0.842,-0.843,-0.843,-0.841,-0.838,-0.832,-0.826,-0.819,-0.813,-0.807,-0.803,-0.8,-0.8,-0.802,-0.806,-0.811,-0.816,-0.821,-0.824,-0.826,-0.826,-0.823,-0.82,-0.814,-0.809,-0.803,-0.798,-0.794,-0.792,-0.791,-0.792,-0.793,-0.794,-0.795,-0.794,-0.792,-0.789,-0.784,-0.777,-0.77,-0.763,-0.757,-0.753,-0.751,-0.753,-0.757,-0.765,-0.775,-0.787,-0.8,-0.813,-0.824,-0.834,-0.841,-0.846,-0.847,-0.847,-0.844,-0.841,-0.837,-0.834,-0.831,-0.829,-0.828,-0.828,-0.828,-0.827,-0.825,-0.822,-0.816,-0.809,-0.8,-0.789,-0.778,-0.767,-0.756,-0.747,-0.739,-0.734,-0.73,-0.728,-0.726,-0.724,-0.722,-0.718,-0.711,-0.702,-0.689,-0.675,-0.658,-0.64,-0.622,-0.604,-0.588,-0.575,-0.563,-0.555,-0.549,-0.544,-0.541,-0.539,-0.536,-0.533,-0.528,-0.522,-0.515,-0.507,-0.499,-0.492,-0.486,-0.482,-0.48,-0.481,-0.483,-0.487,-0.492,-0.498,-0.503,-0.507,-0.51,-0.511,-0.511,-0.51,-0.509,-0.508,-0.508,-0.511,-0.517,-0.525,-0.537,-0.552,-0.569,-0.587,-0.607,-0.626,-0.644,-0.66,-0.675,-0.688,-0.699,-0.71,-0.72,-0.73,-0.741,-0.752,-0.766,-0.78,-0.794,-0.808,-0.822,-0.834,-0.843,-0.849,-0.852,-0.852,-0.85,-0.846,-0.841,-0.836,-0.833,-0.831,-0.832,-0.837,-0.843,-0.853,-0.864,-0.875,-0.887,-0.897,-0.905,-0.911,-0.913,-0.914,-0.911,-0.907,-0.901,-0.894,-0.886,-0.878,-0.869,-0.86,-0.85,-0.838,-0.825,-0.809,-0.79,-0.769,-0.745,-0.72,-0.693,-0.667,-0.642,-0.62,-0.601,-0.586,-0.576,-0.57,-0.568,-0.569,-0.573,-0.579,-0.586,-0.592,-0.597,-0.602,-0.605,-0.607,-0.608,-0.609,-0.611,-0.613,-0.616,-0.62,-0.625,-0.63,-0.634,-0.638,-0.64,-0.64,-0.638,-0.633,-0.627,-0.619,-0.611,-0.603,-0.597,-0.594,-0.594,-0.597,-0.605,-0.615,-0.629,-0.644,-0.661,-0.677,-0.693,-0.707,-0.719,-0.73,-0.739,-0.746,-0.753,-0.76,-0.768,-0.777,-0.787,-0.798,-0.81,-0.822,-0.834,-0.844,-0.852,-0.858,-0.862,-0.863,-0.861,-0.858,-0.854,-0.849,-0.846,-0.844,-0.843,-0.845,-0.849,-0.854,-0.86,-0.866,-0.872,-0.876,-0.878,-0.879,-0.877,-0.874,-0.87,-0.865,-0.86,-0.856,-0.853,-0.852,-0.851,-0.852,-0.852,-0.852,-0.85,-0.846,-0.838,-0.827,-0.813,-0.795,-0.775,-0.752,-0.728,-0.705,-0.682,-0.661,-0.641,-0.624,-0.608,-0.594,-0.581,-0.567,-0.554,-0.539,-0.523,-0.505,-0.486,-0.466,-0.445,-0.425,-0.406,-0.388,-0.372,-0.358,-0.345,-0.333,-0.322,-0.31,-0.297,-0.283,-0.266,-0.248,-0.228,-0.207,-0.186,-0.165,-0.147,-0.131,-0.12,-0.113,-0.111,-0.113,-0.121,-0.132,-0.147,-0.165,-0.185,-0.206,-0.229,-0.254,-0.28,-0.307,-0.337,-0.37,-0.405,-0.444,-0.485,-0.528,-0.573,-0.618,-0.663,-0.706,-0.746,-0.783,-0.816,-0.845,-0.871,-0.893,-0.912,-0.93,-0.946,-0.962,-0.978,-0.994,-1.011,-1.027,-1.043,-1.057,-1.07,-1.079,-1.085,-1.089,-1.089,-1.086,-1.082,-1.076,-1.071,-1.066,-1.063,-1.062,-1.062,-1.065,-1.069,-1.074,-1.079,-1.083,-1.086,-1.086,-1.085,-1.081,-1.076,-1.07,-1.064,-1.059,-1.055,-1.053,-1.053,-1.055,-1.058,-1.063,-1.067,-1.071,-1.073,-1.073,-1.07,-1.063,-1.053,-1.039,-1.021,-1,-0.975,-0.946,-0.914,-0.877,-0.835,-0.787,-0.731,-0.666,-0.592,-0.507,-0.412,-0.306,-0.191,-0.066,0.064,0.2,0.34,0.479,0.617,0.75,0.875,0.991,1.095,1.185,1.258,1.312,1.344,1.353,1.336,1.289,1.211,1.099,0.951,0.768,0.547,0.291,0.002,-0.318,-0.665,-1.033,-1.417,-1.809,-2.202,-2.59,-2.965,-3.321,-3.652,-3.952,-4.217,-4.444,-4.63,-4.773,-4.873,-4.928,-4.94,-4.91,-4.839,-4.731,-4.587,-4.413,-4.213,-3.991,-3.752,-3.503,-3.25,-2.996,-2.748,-2.511,-2.287,-2.081,-1.893,-1.726,-1.58,-1.454,-1.347,-1.257,-1.183,-1.122,-1.073,-1.034,-1.003,-0.979,-0.961,-0.948,-0.938,-0.93,-0.924,-0.919,-0.914,-0.907,-0.898,-0.885,-0.869,-0.849,-0.825,-0.798,-0.769,-0.739,-0.708,-0.679,-0.653,-0.629,-0.61,-0.596,-0.586,-0.58,-0.576,-0.576,-0.576,-0.576,-0.575,-0.573,-0.569,-0.564,-0.556,-0.547,-0.537,-0.527,-0.517,-0.507,-0.497,-0.487,-0.476,-0.464,-0.451,-0.435,-0.417,-0.396,-0.372,-0.346,-0.319,-0.292,-0.265,-0.239,-0.216,-0.196,-0.18,-0.167,-0.158,-0.151,-0.146,-0.143,-0.139,-0.136,-0.131,-0.126,-0.12,-0.113,-0.106,-0.1,-0.095,-0.092,-0.09,-0.091,-0.093,-0.097,-0.101,-0.105,-0.109,-0.111,-0.111,-0.108,-0.104,-0.099,-0.093,-0.086,-0.081,-0.077,-0.075,-0.075,-0.079,-0.084,-0.092,-0.1,-0.11,-0.118,-0.126,-0.133,-0.138,-0.142,-0.145,-0.147,-0.15,-0.153,-0.157,-0.163,-0.171,-0.18,-0.19,-0.199,-0.208,-0.215,-0.22,-0.221,-0.218,-0.212,-0.202,-0.189,-0.175,-0.159,-0.144,-0.13,-0.117,-0.107,-0.099,-0.093,-0.089,-0.086,-0.083,-0.08,-0.077,-0.073,-0.068,-0.062,-0.056,-0.05,-0.045,-0.04,-0.038,-0.037,-0.038,-0.04,-0.043,-0.046,-0.049,-0.05,-0.049,-0.047,-0.042,-0.037,-0.03,-0.023,-0.018,-0.014,-0.014,-0.018,-0.025,-0.037,-0.054,-0.073,-0.096,-0.121,-0.147,-0.174,-0.201,-0.229,-0.257,-0.286,-0.316,-0.347,-0.381,-0.418,-0.458,-0.501,-0.547,-0.594,-0.644,-0.694,-0.743,-0.792,-0.84,-0.886,-0.93,-0.974,-1.016,-1.058,-1.101,-1.146,-1.192,-1.241,-1.292,-1.344,-1.399,-1.453,-1.508,-1.562,-1.613,-1.663,-1.71,-1.755,-1.797,-1.838,-1.878,-1.918,-1.957,-1.997,-2.038,-2.079,-2.119,-2.159,-2.196,-2.231,-2.262,-2.288,-2.309,-2.324,-2.336,-2.343,-2.346,-2.347,-2.346,-2.345,-2.344,-2.343,-2.342,-2.342,-2.341,-2.34,-2.337,-2.332,-2.325,-2.316,-2.305,-2.292,-2.279,-2.265,-2.252,-2.241,-2.232,-2.225,-2.22,-2.218,-2.216,-2.215,-2.214,-2.211,-2.207,-2.199,-2.189,-2.176,-2.161,-2.144,-2.126,-2.109,-2.092,-2.077,-2.063,-2.052,-2.043,-2.036,-2.03,-2.024,-2.019,-2.014,-2.008,-2.002,-1.996,-1.99,-1.986,-1.984,-1.984,-1.987,-1.994,-2.003,-2.016,-2.031,-2.046,-2.062,-2.078,-2.092,-2.103,-2.112,-2.118,-2.122,-2.124,-2.124,-2.124,-2.124,-2.125,-2.127,-2.13,-2.134,-2.138,-2.143,-2.146,-2.148,-2.149,-2.147,-2.143,-2.137,-2.129,-2.121,-2.113,-2.106,-2.1,-2.096,-2.094,-2.094,-2.095,-2.097,-2.099,-2.1,-2.099,-2.096,-2.091,-2.082,-2.071,-2.059,-2.044,-2.029,-2.015,-2.001,-1.988,-1.977,-1.966,-1.957,-1.948,-1.938,-1.927,-1.914,-1.899,-1.882,-1.862,-1.841,-1.818,-1.795,-1.772,-1.751,-1.731,-1.713,-1.697,-1.683,-1.67,-1.658,-1.646,-1.634,-1.62,-1.605,-1.589,-1.572,-1.555,-1.538,-1.523,-1.509,-1.498,-1.491,-1.486,-1.485,-1.486,-1.489,-1.493,-1.496,-1.497,-1.497,-1.494,-1.488,-1.48,-1.469,-1.457,-1.444,-1.432,-1.42,-1.409,-1.4,-1.393,-1.386,-1.381,-1.375,-1.369,-1.361,-1.352,-1.341,-1.328,-1.314,-1.299,-1.284,-1.269,-1.256,-1.245,-1.236,-1.229,-1.224,-1.219,-1.216,-1.212,-1.207,-1.2,-1.192,-1.182,-1.171,-1.159,-1.147,-1.136,-1.128,-1.122,-1.121,-1.123,-1.129,-1.139,-1.152,-1.167,-1.182,-1.198,-1.213,-1.226,-1.238,-1.247,-1.256,-1.263,-1.269,-1.276,-1.284,-1.293,-1.303,-1.315,-1.327,-1.339,-1.351,-1.361,-1.37,-1.376,-1.38,-1.38,-1.379,-1.375,-1.371,-1.366,-1.361,-1.357,-1.354,-1.352,-1.351,-1.351,-1.351,-1.35,-1.348,-1.345,-1.34,-1.334,-1.326,-1.318,-1.31,-1.303,-1.298,-1.296,-1.296,-1.3,-1.306,-1.315,-1.325,-1.336,-1.347,-1.356,-1.363,-1.369,-1.371,-1.372,-1.37,-1.367,-1.364,-1.361,-1.359,-1.358,-1.359,-1.361,-1.365,-1.369,-1.373,-1.376,-1.379,-1.38,-1.38,-1.379,-1.377,-1.375,-1.374,-1.374,-1.377,-1.383,-1.391,-1.402,-1.415,-1.429,-1.444,-1.458,-1.471,-1.481,-1.488,-1.491,-1.492,-1.49,-1.487,-1.483,-1.478,-1.475,-1.474,-1.475,-1.478,-1.484,-1.491,-1.499,-1.509,-1.518,-1.526,-1.533,-1.539,-1.543,-1.546,-1.549,-1.552,-1.554,-1.558,-1.562,-1.566,-1.571,-1.576,-1.579,-1.58,-1.579,-1.574,-1.565,-1.553,-1.537,-1.518,-1.497,-1.475,-1.453,-1.432,-1.412,-1.395,-1.38,-1.367,-1.356,-1.346,-1.337,-1.328,-1.318,-1.307,-1.294,-1.28,-1.265,-1.25,-1.235,-1.222,-1.21,-1.201,-1.195,-1.192,-1.19,-1.191,-1.193,-1.195,-1.197,-1.198,-1.198,-1.197,-1.195,-1.192,-1.19,-1.188,-1.187,-1.189,-1.193,-1.2,-1.208,-1.219,-1.23,-1.242,-1.253,-1.263,-1.271,-1.277,-1.282,-1.285,-1.287,-1.289,-1.291,-1.295,-1.301,-1.309,-1.32,-1.332,-1.346,-1.36,-1.375,-1.388,-1.4,-1.41,-1.418,-1.424,-1.429,-1.432,-1.436,-1.44,-1.446,-1.453,-1.463,-1.474,-1.487,-1.501,-1.515,-1.528,-1.539,-1.548,-1.554,-1.557,-1.557,-1.554,-1.549,-1.542,-1.534,-1.525,-1.515,-1.505,-1.495,-1.483,-1.469,-1.453,-1.433,-1.411,-1.385,-1.355,-1.323,-1.288,-1.251,-1.215,-1.179,-1.145,-1.114,-1.086,-1.061,-1.041,-1.023,-1.009,-0.997,-0.987,-0.978,-0.97,-0.964,-0.959,-0.957,-0.957,-0.96,-0.968,-0.98,-0.997,-1.019,-1.045,-1.075,-1.108,-1.142,-1.177,-1.212,-1.245,-1.275,-1.303,-1.327,-1.349,-1.368,-1.386,-1.401,-1.416,-1.429,-1.442,-1.454,-1.464,-1.472,-1.478,-1.481,-1.48,-1.476,-1.468,-1.458,-1.445,-1.43,-1.415,-1.401,-1.388,-1.377,-1.369,-1.364,-1.361,-1.36,-1.361,-1.363,-1.364,-1.365,-1.365,-1.364,-1.362,-1.36,-1.357,-1.356,-1.356,-1.358,-1.362,-1.369,-1.379,-1.39,-1.403,-1.416,-1.429,-1.44,-1.449,-1.456,-1.46,-1.461,-1.46,-1.457,-1.452,-1.446,-1.439,-1.431,-1.422,-1.41,-1.395,-1.376,-1.352,-1.321,-1.283,-1.236,-1.182,-1.118,-1.047,-0.969,-0.885,-0.796,-0.704,-0.609,-0.514,-0.42,-0.327,-0.238,-0.152,-0.072,0,0.064,0.118,0.157,0.181,0.186,0.169,0.127,0.058,-0.04,-0.17,-0.33,-0.521,-0.742,-0.99,-1.262,-1.554,-1.861,-2.18,-2.504,-2.829,-3.149,-3.46,-3.756,-4.034,-4.289,-4.517,-4.714,-4.878,-5.006,-5.096,-5.147,-5.157,-5.128,-5.059,-4.954,-4.815,-4.646,-4.451,-4.235,-4.003,-3.761,-3.514,-3.266,-3.023,-2.787,-2.561,-2.349,-2.15,-1.968,-1.801,-1.65,-1.515,-1.395,-1.29,-1.201,-1.125,-1.062,-1.013,-0.975,-0.948,-0.929,-0.919,-0.914,-0.912,-0.913,-0.913,-0.912,-0.909,-0.902,-0.892,-0.879,-0.864,-0.848,-0.831,-0.816,-0.802,-0.791,-0.784,-0.781,-0.781,-0.784,-0.79,-0.798,-0.807,-0.817,-0.827,-0.838,-0.85,-0.862,-0.876,-0.891,-0.909,-0.929,-0.951,-0.975,-0.999,-1.024,-1.047,-1.068,-1.085,-1.098,-1.107,-1.11,-1.108,-1.101,-1.091,-1.078,-1.064,-1.049,-1.034,-1.019,-1.006,-0.993,-0.981,-0.969,-0.957,-0.944,-0.93,-0.915,-0.898,-0.881,-0.864,-0.847,-0.832,-0.818,-0.807,-0.799,-0.794,-0.792,-0.792,-0.794,-0.796,-0.798,-0.8,-0.8,-0.798,-0.795,-0.791,-0.786,-0.78,-0.775,-0.771,-0.769,-0.768,-0.769,-0.77,-0.772,-0.773,-0.773,-0.771,-0.766,-0.758,-0.746,-0.731,-0.713,-0.694,-0.673,-0.652,-0.632,-0.613,-0.596,-0.581,-0.567,-0.553,-0.54,-0.526,-0.511,-0.494,-0.475,-0.453,-0.43,-0.406,-0.382,-0.358,-0.335,-0.315,-0.296,-0.281,-0.268,-0.256,-0.246,-0.237,-0.227,-0.215,-0.203,-0.188,-0.172,-0.154,-0.136,-0.118,-0.101,-0.086,-0.073,-0.063,-0.055,-0.051,-0.049,-0.048,-0.048,-0.048,-0.048,-0.047,-0.044,-0.041,-0.038,-0.036,-0.035,-0.037,-0.041,-0.05,-0.062,-0.079,-0.1,-0.124,-0.15,-0.178,-0.208,-0.238,-0.269,-0.299,-0.33,-0.362,-0.396,-0.432,-0.471,-0.513,-0.56,-0.61,-0.664,-0.721,-0.78,-0.841,-0.902,-0.963,-1.023,-1.082,-1.139,-1.196,-1.251,-1.307,-1.363,-1.42,-1.479,-1.54,-1.603,-1.667,-1.731,-1.796,-1.86,-1.922,-1.981,-2.038,-2.091,-2.141,-2.188,-2.233,-2.277,-2.32,-2.363,-2.406,-2.45,-2.494,-2.537,-2.581,-2.622,-2.661,-2.697,-2.729,-2.757,-2.781,-2.801,-2.817,-2.831,-2.843,-2.854,-2.866,-2.877,-2.889,-2.902,-2.915,-2.927,-2.938,-2.948,-2.954,-2.958,-2.957,-2.954,-2.947,-2.938,-2.927,-2.914,-2.902,-2.889,-2.878,-2.867,-2.856,-2.846,-2.836,-2.824,-2.811,-2.796,-2.779,-2.758,-2.736,-2.712,-2.687,-2.661,-2.636,-2.612,-2.59,-2.57,-2.552,-2.536,-2.521,-2.506,-2.492,-2.476,-2.46,-2.442,-2.422,-2.401,-2.38,-2.359,-2.339,-2.321,-2.305,-2.293,-2.283,-2.276,-2.271,-2.268,-2.266,-2.265,-2.263,-2.26,-2.256,-2.25,-2.244,-2.237,-2.231,-2.225,-2.222,-2.22,-2.221,-2.224,-2.228,-2.234,-2.24,-2.246,-2.25,-2.252,-2.251,-2.249,-2.243,-2.237,-2.229,-2.221,-2.214,-2.209,-2.207,-2.207,-2.21,-2.215,-2.222,-2.23,-2.239,-2.246,-2.252,-2.256,-2.257,-2.257,-2.254,-2.251,-2.246,-2.242,-2.238,-2.234,-2.232,-2.23,-2.229,-2.227,-2.224,-2.219,-2.212,-2.202,-2.189,-2.174,-2.157,-2.138,-2.119,-2.1,-2.082,-2.066,-2.053,-2.042,-2.033,-2.026,-2.021,-2.016,-2.01,-2.004,-1.997,-1.989,-1.98,-1.969,-1.959,-1.949,-1.94,-1.933,-1.928,-1.925,-1.923,-1.924,-1.925,-1.925,-1.925,-1.922,-1.917,-1.909,-1.899,-1.885,-1.869,-1.852,-1.834,-1.817,-1.801,-1.786,-1.774,-1.764,-1.755,-1.747,-1.74,-1.733,-1.725,-1.716,-1.706,-1.694,-1.681,-1.668,-1.655,-1.643,-1.633,-1.625,-1.619,-1.615,-1.614,-1.613,-1.613,-1.613,-1.612,-1.609,-1.604,-1.596,-1.587,-1.576,-1.563,-1.551,-1.54,-1.53,-1.523,-1.518,-1.515,-1.514,-1.515,-1.517,-1.518,-1.519,-1.519,-1.516,-1.512,-1.506,-1.499,-1.49,-1.482,-1.475,-1.468,-1.464,-1.461,-1.459,-1.458,-1.458,-1.457,-1.455,-1.452,-1.446,-1.438,-1.428,-1.416,-1.403,-1.39,-1.377,-1.367,-1.358,-1.352,-1.349,-1.349,-1.35,-1.354,-1.358,-1.363,-1.367,-1.37,-1.372,-1.374,-1.374,-1.375,-1.377,-1.38,-1.384,-1.391,-1.4,-1.412,-1.425,-1.438,-1.452,-1.464,-1.475,-1.484,-1.49,-1.493,-1.494,-1.493,-1.491,-1.489,-1.489,-1.49,-1.494,-1.501,-1.51,-1.523,-1.537,-1.553,-1.57,-1.587,-1.603,-1.619,-1.634,-1.648,-1.661,-1.675,-1.69,-1.705,-1.723,-1.742,-1.763,-1.785,-1.808,-1.83,-1.851,-1.871,-1.887,-1.9,-1.91,-1.916,-1.919,-1.92,-1.919,-1.916,-1.913,-1.91,-1.906,-1.903,-1.9,-1.895,-1.89,-1.882,-1.873,-1.86,-1.844,-1.826,-1.806,-1.785,-1.763,-1.741,-1.721,-1.704,-1.688,-1.675,-1.665,-1.656,-1.648,-1.639,-1.63,-1.618,-1.603,-1.585,-1.564,-1.539,-1.51,-1.48,-1.448,-1.415,-1.382,-1.35,-1.318,-1.287,-1.257,-1.228,-1.199,-1.171,-1.142,-1.114,-1.086,-1.06,-1.035,-1.012,-0.994,-0.98,-0.971,-0.967,-0.969,-0.977,-0.989,-1.006,-1.025,-1.046,-1.068,-1.09,-1.111,-1.131,-1.149,-1.167,-1.185,-1.203,-1.222,-1.242,-1.265,-1.289,-1.316,-1.344,-1.373,-1.402,-1.431,-1.458,-1.484,-1.508,-1.531,-1.551,-1.57,-1.588,-1.606,-1.624,-1.643,-1.662,-1.681,-1.7,-1.719,-1.736,-1.75,-1.762,-1.77,-1.774,-1.774,-1.771,-1.766,-1.758,-1.751,-1.743,-1.738,-1.735,-1.734,-1.737,-1.742,-1.75,-1.759,-1.769,-1.78,-1.789,-1.798,-1.806,-1.812,-1.816,-1.821,-1.824,-1.828,-1.832,-1.836,-1.84,-1.844,-1.847,-1.847,-1.845,-1.84,-1.829,-1.814,-1.793,-1.767,-1.737,-1.701,-1.662,-1.619,-1.574,-1.527,-1.477,-1.424,-1.369,-1.31,-1.246,-1.176,-1.1,-1.017,-0.926,-0.828,-0.723,-0.613,-0.498,-0.381,-0.262,-0.146,-0.033,0.072,0.171,0.259,0.334,0.395,0.439,0.465,0.47,0.452,0.41,0.34,0.242,0.114,-0.043,-0.233,-0.452,-0.7,-0.973,-1.269,-1.582,-1.908,-2.241,-2.574,-2.901,-3.217,-3.516,-3.792,-4.042,-4.262,-4.449,-4.601,-4.718,-4.797,-4.841,-4.849,-4.822,-4.763,-4.672,-4.553,-4.408,-4.241,-4.055,-3.855,-3.644,-3.428,-3.209,-2.994,-2.785,-2.585,-2.398,-2.226,-2.07,-1.93,-1.806,-1.699,-1.606,-1.527,-1.46,-1.404,-1.358,-1.32,-1.29,-1.268,-1.252,-1.242,-1.237,-1.237,-1.241,-1.247,-1.256,-1.265,-1.273,-1.28,-1.285,-1.287,-1.286,-1.282,-1.276,-1.268,-1.26,-1.252,-1.245,-1.24,-1.237,-1.237,-1.239,-1.243,-1.247,-1.252,-1.255,-1.257,-1.258,-1.255,-1.251,-1.244,-1.235,-1.225,-1.215,-1.204,-1.193,-1.183,-1.172,-1.16,-1.147,-1.133,-1.115,-1.094,-1.07,-1.042,-1.01,-0.976,-0.939,-0.902,-0.865,-0.829,-0.796,-0.765,-0.737,-0.713,-0.692,-0.673,-0.655,-0.638,-0.62,-0.603,-0.584,-0.563,-0.543,-0.521,-0.5,-0.481,-0.463,-0.448,-0.435,-0.425,-0.419,-0.414,-0.412,-0.41,-0.41,-0.409,-0.409,-0.408,-0.407,-0.406,-0.407,-0.41,-0.415,-0.423,-0.434,-0.448,-0.465,-0.484,-0.504,-0.524,-0.543,-0.56,-0.575,-0.586,-0.594,-0.598,-0.6,-0.6,-0.599,-0.597,-0.595,-0.595,-0.596,-0.598,-0.601,-0.604,-0.607,-0.61,-0.612,-0.611,-0.61,-0.607,-0.602,-0.598,-0.594,-0.591,-0.59,-0.591,-0.596,-0.602,-0.611,-0.622,-0.633,-0.645,-0.655,-0.664,-0.67,-0.675,-0.677,-0.677,-0.676,-0.675,-0.675,-0.676,-0.679,-0.684,-0.691,-0.701,-0.711,-0.723,-0.735,-0.746,-0.755,-0.763,-0.768,-0.772,-0.775,-0.777,-0.779,-0.782,-0.786,-0.792,-0.801,-0.811,-0.823,-0.836,-0.85,-0.865,-0.879,-0.892,-0.905,-0.917,-0.929,-0.942,-0.957,-0.974,-0.994,-1.018,-1.046,-1.078,-1.114,-1.154,-1.195,-1.238,-1.282,-1.326,-1.369,-1.411,-1.453,-1.494,-1.535,-1.577,-1.621,-1.666,-1.714,-1.764,-1.816,-1.869,-1.924,-1.978,-2.031,-2.082,-2.131,-2.176,-2.217,-2.256,-2.291,-2.324,-2.356,-2.386,-2.416,-2.445,-2.474,-2.503,-2.531,-2.557,-2.58,-2.6,-2.616,-2.628,-2.636,-2.639,-2.638,-2.633,-2.627,-2.618,-2.61,-2.601,-2.593,-2.586,-2.579,-2.573,-2.567,-2.561,-2.553,-2.543,-2.532,-2.518,-2.503,-2.487,-2.471,-2.456,-2.442,-2.429,-2.42,-2.413,-2.409,-2.406,-2.406,-2.405,-2.405,-2.403,-2.4,-2.395,-2.388,-2.379,-2.369,-2.359,-2.349,-2.341,-2.334,-2.331,-2.331,-2.333,-2.338,-2.345,-2.353,-2.361,-2.369,-2.376,-2.381,-2.386,-2.389,-2.392,-2.395,-2.398,-2.403,-2.41,-2.419,-2.43,-2.443,-2.457,-2.472,-2.486,-2.499,-2.511,-2.521,-2.529,-2.536,-2.541,-2.546,-2.55,-2.556,-2.563,-2.573,-2.584,-2.597,-2.612,-2.627,-2.642,-2.656,-2.667,-2.676,-2.682,-2.685,-2.684,-2.682,-2.678,-2.673,-2.668,-2.663,-2.66,-2.659,-2.658,-2.659,-2.66,-2.661,-2.66,-2.658,-2.654,-2.647,-2.637,-2.625,-2.611,-2.596,-2.58,-2.565,-2.549,-2.534,-2.52,-2.506,-2.491,-2.475,-2.457,-2.436,-2.411,-2.383,-2.351,-2.316,-2.277,-2.237,-2.195,-2.153,-2.112,-2.073,-2.035,-2,-1.966,-1.935,-1.904,-1.874,-1.844,-1.813,-1.781,-1.749,-1.715,-1.682,-1.649,-1.617,-1.586,-1.559,-1.534,-1.511,-1.492,-1.475,-1.459,-1.444,-1.43,-1.415,-1.4,-1.385,-1.368,-1.352,-1.337,-1.323,-1.312,-1.304,-1.3,-1.3,-1.304,-1.311,-1.322,-1.335,-1.35,-1.365,-1.379,-1.393,-1.405,-1.417,-1.427,-1.437,-1.446,-1.456,-1.468,-1.48,-1.494,-1.509,-1.525,-1.542,-1.557,-1.572,-1.584,-1.594,-1.601,-1.606,-1.608,-1.609,-1.608,-1.608,-1.609,-1.612,-1.618,-1.625,-1.636,-1.648,-1.662,-1.677,-1.693,-1.707,-1.721,-1.733,-1.744,-1.754,-1.763,-1.771,-1.78,-1.79,-1.8,-1.812,-1.825,-1.837,-1.85,-1.86,-1.868,-1.873,-1.874,-1.87,-1.861,-1.848,-1.832,-1.812,-1.79,-1.767,-1.745,-1.723,-1.702,-1.683,-1.666,-1.65,-1.635,-1.619,-1.603,-1.586,-1.567,-1.548,-1.527,-1.505,-1.483,-1.462,-1.442,-1.424,-1.409,-1.395,-1.383,-1.373,-1.364,-1.355,-1.346,-1.335,-1.323,-1.309,-1.293,-1.276,-1.259,-1.242,-1.228,-1.216,-1.207,-1.202,-1.202,-1.206,-1.213,-1.224,-1.238,-1.253,-1.269,-1.285,-1.302,-1.319,-1.337,-1.355,-1.375,-1.397,-1.421,-1.447,-1.476,-1.507,-1.538,-1.57,-1.602,-1.631,-1.658,-1.682,-1.702,-1.718,-1.731,-1.741,-1.749,-1.755,-1.762,-1.769,-1.777,-1.787,-1.798,-1.811,-1.824,-1.837,-1.849,-1.859,-1.868,-1.874,-1.877,-1.879,-1.878,-1.876,-1.874,-1.871,-1.869,-1.867,-1.865,-1.863,-1.86,-1.857,-1.851,-1.842,-1.83,-1.814,-1.794,-1.77,-1.744,-1.715,-1.684,-1.652,-1.62,-1.589,-1.558,-1.528,-1.499,-1.47,-1.44,-1.41,-1.379,-1.348,-1.315,-1.282,-1.249,-1.217,-1.188,-1.161,-1.139,-1.121,-1.108,-1.101,-1.098,-1.1,-1.104,-1.111,-1.119,-1.127,-1.134,-1.141,-1.146,-1.151,-1.156,-1.161,-1.167,-1.176,-1.187,-1.202,-1.22,-1.241,-1.265,-1.291,-1.318,-1.346,-1.374,-1.401,-1.427,-1.452,-1.476,-1.5,-1.524,-1.548,-1.573,-1.599,-1.627,-1.654,-1.682,-1.709,-1.735,-1.758,-1.777,-1.793,-1.805,-1.813,-1.818,-1.82,-1.82,-1.818,-1.817,-1.817,-1.817,-1.819,-1.823,-1.828,-1.833,-1.838,-1.841,-1.843,-1.843,-1.841,-1.836,-1.83,-1.822,-1.814,-1.807,-1.8,-1.796,-1.794,-1.794,-1.797,-1.801,-1.805,-1.809,-1.812,-1.813,-1.811,-1.806,-1.797,-1.785,-1.769,-1.75,-1.727,-1.701,-1.671,-1.637,-1.599,-1.555,-1.503,-1.444,-1.375,-1.295,-1.205,-1.103,-0.991,-0.868,-0.736,-0.598,-0.454,-0.307,-0.159,-0.013,0.128,0.263,0.39,0.506,0.608,0.695,0.764,0.812,0.837,0.835,0.804,0.742,0.646,0.514,0.345,0.14,-0.1,-0.374,-0.679,-1.011,-1.364,-1.731,-2.108,-2.487,-2.861,-3.224,-3.57,-3.894,-4.189,-4.452,-4.68,-4.87,-5.019,-5.127,-5.192,-5.215,-5.196,-5.137,-5.04,-4.907,-4.742,-4.55,-4.334,-4.101,-3.856,-3.604,-3.351,-3.102,-2.862,-2.635,-2.424,-2.231,-2.057,-1.904,-1.771,-1.657,-1.562,-1.484,-1.423,-1.375,-1.341,-1.319,-1.307,-1.305,-1.312,-1.325,-1.343,-1.365,-1.389,-1.414,-1.437,-1.456,-1.472,-1.482,-1.485,-1.482,-1.474,-1.459,-1.44,-1.418,-1.394,-1.369,-1.344,-1.32,-1.297,-1.275,-1.254,-1.233,-1.212,-1.191,-1.169,-1.146,-1.122,-1.097,-1.071,-1.045,-1.021,-0.998,-0.977,-0.959,-0.943,-0.929,-0.917,-0.906,-0.895,-0.884,-0.871,-0.856,-0.84,-0.821,-0.801,-0.779,-0.757,-0.735,-0.714,-0.694,-0.676,-0.659,-0.644,-0.63,-0.617,-0.603,-0.588,-0.571,-0.553,-0.534,-0.513,-0.491,-0.47,-0.449,-0.431,-0.415,-0.402,-0.393,-0.388,-0.386,-0.386,-0.389,-0.392,-0.396,-0.399,-0.401,-0.402,-0.402,-0.402,-0.402,-0.402,-0.404,-0.408,-0.415,-0.423,-0.434,-0.447,-0.461,-0.474,-0.487,-0.498,-0.507,-0.514,-0.518,-0.52,-0.52,-0.52,-0.519,-0.519,-0.52,-0.522,-0.525,-0.529,-0.534,-0.539,-0.543,-0.545,-0.545,-0.542,-0.537,-0.529,-0.519,-0.509,-0.498,-0.487,-0.479,-0.472,-0.468,-0.466,-0.466,-0.469,-0.472,-0.476,-0.479,-0.482,-0.484,-0.484,-0.484,-0.483,-0.481,-0.481,-0.481,-0.483,-0.487,-0.492,-0.499,-0.507,-0.515,-0.522,-0.527,-0.531,-0.532,-0.531,-0.527,-0.521,-0.513,-0.505,-0.498,-0.492,-0.488,-0.487,-0.488,-0.492,-0.499,-0.507,-0.517,-0.528,-0.539,-0.551,-0.563,-0.577,-0.592,-0.61,-0.631,-0.656,-0.686,-0.721,-0.761,-0.806,-0.856,-0.909,-0.964,-1.02,-1.077,-1.133,-1.188,-1.241,-1.293,-1.344,-1.394,-1.445,-1.496,-1.548,-1.601,-1.656,-1.712,-1.768,-1.823,-1.878,-1.93,-1.98,-2.026,-2.068,-2.107,-2.143,-2.175,-2.206,-2.235,-2.264,-2.293,-2.322,-2.352,-2.381,-2.41,-2.438,-2.463,-2.486,-2.505,-2.52,-2.531,-2.538,-2.541,-2.541,-2.539,-2.535,-2.53,-2.524,-2.519,-2.513,-2.507,-2.501,-2.493,-2.483,-2.471,-2.457,-2.44,-2.421,-2.399,-2.377,-2.354,-2.332,-2.312,-2.294,-2.278,-2.265,-2.255,-2.247,-2.24,-2.233,-2.226,-2.218,-2.208,-2.196,-2.181,-2.165,-2.148,-2.13,-2.112,-2.096,-2.082,-2.069,-2.059,-2.051,-2.045,-2.04,-2.035,-2.029,-2.023,-2.015,-2.005,-1.993,-1.98,-1.966,-1.952,-1.938,-1.926,-1.916,-1.908,-1.901,-1.897,-1.894,-1.891,-1.888,-1.885,-1.881,-1.875,-1.867,-1.859,-1.85,-1.842,-1.835,-1.83,-1.828,-1.829,-1.833,-1.84,-1.85,-1.862,-1.876,-1.89,-1.904,-1.917,-1.929,-1.941,-1.951,-1.961,-1.971,-1.982,-1.995,-2.009,-2.025,-2.044,-2.063,-2.083,-2.103,-2.121,-2.138,-2.152,-2.162,-2.169,-2.172,-2.173,-2.17,-2.166,-2.16,-2.153,-2.146,-2.139,-2.131,-2.123,-2.113,-2.102,-2.087,-2.07,-2.049,-2.024,-1.996,-1.965,-1.932,-1.898,-1.864,-1.831,-1.799,-1.77,-1.744,-1.72,-1.698,-1.677,-1.658,-1.638,-1.617,-1.595,-1.57,-1.544,-1.516,-1.487,-1.457,-1.428,-1.399,-1.372,-1.347,-1.324,-1.303,-1.284,-1.265,-1.247,-1.229,-1.21,-1.191,-1.17,-1.148,-1.126,-1.105,-1.085,-1.067,-1.052,-1.041,-1.033,-1.029,-1.028,-1.031,-1.035,-1.041,-1.047,-1.053,-1.058,-1.063,-1.068,-1.072,-1.076,-1.081,-1.088,-1.096,-1.107,-1.119,-1.132,-1.147,-1.162,-1.176,-1.189,-1.2,-1.208,-1.214,-1.217,-1.219,-1.219,-1.219,-1.219,-1.221,-1.224,-1.231,-1.239,-1.251,-1.264,-1.278,-1.292,-1.306,-1.319,-1.331,-1.34,-1.348,-1.354,-1.359,-1.364,-1.369,-1.376,-1.383,-1.393,-1.404,-1.416,-1.429,-1.442,-1.455,-1.466,-1.475,-1.482,-1.487,-1.49,-1.491,-1.491,-1.49,-1.49,-1.491,-1.492,-1.495,-1.498,-1.501,-1.504,-1.506,-1.505,-1.502,-1.496,-1.486,-1.474,-1.459,-1.442,-1.424,-1.406,-1.389,-1.373,-1.359,-1.346,-1.336,-1.327,-1.319,-1.311,-1.303,-1.293,-1.283,-1.272,-1.26,-1.248,-1.237,-1.228,-1.221,-1.217,-1.217,-1.22,-1.227,-1.237,-1.249,-1.262,-1.275,-1.288,-1.299,-1.307,-1.313,-1.317,-1.319,-1.32,-1.321,-1.322,-1.325,-1.329,-1.335,-1.344,-1.355,-1.367,-1.38,-1.393,-1.406,-1.418,-1.428,-1.437,-1.445,-1.452,-1.458,-1.465,-1.472,-1.48,-1.489,-1.499,-1.51,-1.52,-1.529,-1.536,-1.541,-1.543,-1.541,-1.537,-1.529,-1.519,-1.508,-1.496,-1.485,-1.475,-1.467,-1.461,-1.458,-1.457,-1.458,-1.459,-1.46,-1.46,-1.458,-1.454,-1.448,-1.44,-1.431,-1.419,-1.408,-1.396,-1.385,-1.375,-1.365,-1.356,-1.348,-1.339,-1.328,-1.315,-1.3,-1.282,-1.26,-1.235,-1.206,-1.176,-1.144,-1.111,-1.078,-1.046,-1.014,-0.984,-0.955,-0.926,-0.898,-0.869,-0.839,-0.809,-0.778,-0.746,-0.715,-0.684,-0.655,-0.629,-0.607,-0.59,-0.578,-0.572,-0.572,-0.577,-0.586,-0.599,-0.615,-0.632,-0.65,-0.669,-0.687,-0.706,-0.725,-0.745,-0.767,-0.791,-0.818,-0.848,-0.881,-0.917,-0.956,-0.997,-1.039,-1.081,-1.122,-1.163,-1.202,-1.24,-1.277,-1.313,-1.349,-1.386,-1.425,-1.464,-1.506,-1.548,-1.592,-1.636,-1.678,-1.719,-1.756,-1.79,-1.818,-1.842,-1.86,-1.874,-1.883,-1.889,-1.891,-1.892,-1.892,-1.89,-1.888,-1.884,-1.88,-1.874,-1.866,-1.856,-1.843,-1.828,-1.811,-1.791,-1.771,-1.751,-1.732,-1.714,-1.698,-1.685,-1.674,-1.666,-1.66,-1.654,-1.649,-1.642,-1.634,-1.624,-1.61,-1.593,-1.574,-1.552,-1.528,-1.503,-1.476,-1.448,-1.418,-1.386,-1.351,-1.312,-1.267,-1.215,-1.155,-1.085,-1.004,-0.912,-0.808,-0.694,-0.569,-0.435,-0.293,-0.144,0.008,0.164,0.321,0.477,0.631,0.781,0.924,1.059,1.182,1.29,1.379,1.447,1.489,1.501,1.48,1.422,1.326,1.19,1.012,0.794,0.538,0.245,-0.078,-0.43,-0.805,-1.195,-1.595,-1.998,-2.398,-2.788,-3.163,-3.516,-3.842,-4.136,-4.394,-4.612,-4.786,-4.915,-4.998,-5.033,-5.021,-4.964,-4.866,-4.729,-4.558,-4.36,-4.139,-3.903,-3.656,-3.407,-3.159,-2.917,-2.687,-2.472,-2.273,-2.092,-1.931,-1.79,-1.669,-1.567,-1.483,-1.418,-1.369,-1.336,-1.317,-1.311,-1.316,-1.331,-1.353,-1.381,-1.41,-1.441,-1.469,-1.494,-1.513,-1.525,-1.53,-1.527,-1.517,-1.501,-1.479,-1.453,-1.425,-1.394,-1.364,-1.333,-1.303,-1.274,-1.245,-1.217,-1.188,-1.159,-1.13,-1.1,-1.07,-1.041,-1.013,-0.986,-0.963,-0.943,-0.926,-0.913,-0.904,-0.897,-0.892,-0.889,-0.885,-0.881,-0.874,-0.865,-0.853,-0.838,-0.821,-0.802,-0.781,-0.76,-0.738,-0.717,-0.696,-0.675,-0.654,-0.632,-0.609,-0.584,-0.557,-0.528,-0.497,-0.464,-0.43,-0.395,-0.361,-0.329,-0.3,-0.274,-0.253,-0.235,-0.221,-0.21,-0.202,-0.195,-0.189,-0.183,-0.177,-0.17,-0.162,-0.153,-0.145,-0.137,-0.131,-0.127,-0.124,-0.125,-0.127,-0.131,-0.137,-0.142,-0.147,-0.151,-0.153,-0.152,-0.15,-0.146,-0.141,-0.135,-0.131,-0.128,-0.128,-0.131,-0.138,-0.148,-0.161,-0.176,-0.193,-0.211,-0.228,-0.244,-0.26,-0.273,-0.286,-0.297,-0.308,-0.318,-0.329,-0.341,-0.353,-0.366,-0.379,-0.392,-0.404,-0.414,-0.422,-0.427,-0.429,-0.428,-0.424,-0.418,-0.41,-0.403,-0.396,-0.39,-0.386,-0.385,-0.386,-0.389,-0.393,-0.398,-0.402,-0.406,-0.408,-0.408,-0.406,-0.402,-0.396,-0.39,-0.385,-0.379,-0.375,-0.373,-0.373,-0.375,-0.378,-0.382,-0.387,-0.391,-0.394,-0.395,-0.395,-0.395,-0.393,-0.392,-0.393,-0.395,-0.4,-0.409,-0.422,-0.44,-0.462,-0.487,-0.516,-0.546,-0.579,-0.612,-0.645,-0.679,-0.713,-0.748,-0.784,-0.821,-0.861,-0.903,-0.948,-0.996,-1.047,-1.1,-1.154,-1.209,-1.263,-1.316,-1.368,-1.416,-1.462,-1.506,-1.548,-1.589,-1.629,-1.668,-1.708,-1.749,-1.79,-1.831,-1.872,-1.912,-1.95,-1.984,-2.015,-2.042,-2.064,-2.082,-2.096,-2.106,-2.114,-2.121,-2.127,-2.134,-2.141,-2.149,-2.158,-2.168,-2.177,-2.186,-2.193,-2.198,-2.201,-2.202,-2.2,-2.196,-2.192,-2.187,-2.184,-2.181,-2.18,-2.181,-2.184,-2.188,-2.194,-2.199,-2.203,-2.206,-2.206,-2.204,-2.2,-2.193,-2.184,-2.174,-2.163,-2.153,-2.144,-2.137,-2.132,-2.128,-2.125,-2.123,-2.121,-2.118,-2.113,-2.107,-2.098,-2.087,-2.074,-2.06,-2.046,-2.032,-2.018,-2.007,-1.997,-1.989,-1.982,-1.977,-1.972,-1.967,-1.961,-1.953,-1.943,-1.932,-1.919,-1.905,-1.89,-1.877,-1.864,-1.855,-1.848,-1.845,-1.844,-1.847,-1.853,-1.86,-1.868,-1.876,-1.883,-1.89,-1.895,-1.899,-1.902,-1.905,-1.908,-1.912,-1.917,-1.923,-1.931,-1.94,-1.949,-1.958,-1.966,-1.972,-1.974,-1.974,-1.97,-1.962,-1.951,-1.938,-1.923,-1.908,-1.892,-1.877,-1.863,-1.851,-1.84,-1.829,-1.819,-1.808,-1.796,-1.783,-1.767,-1.75,-1.731,-1.71,-1.689,-1.667,-1.646,-1.626,-1.607,-1.59,-1.574,-1.558,-1.542,-1.525,-1.506,-1.485,-1.461,-1.434,-1.404,-1.372,-1.338,-1.305,-1.272,-1.241,-1.213,-1.189,-1.17,-1.154,-1.142,-1.133,-1.126,-1.121,-1.115,-1.11,-1.103,-1.095,-1.086,-1.076,-1.066,-1.055,-1.045,-1.036,-1.028,-1.022,-1.016,-1.011,-1.007,-1.001,-0.995,-0.988,-0.979,-0.969,-0.958,-0.946,-0.935,-0.925,-0.918,-0.913,-0.912,-0.914,-0.92,-0.928,-0.938,-0.95,-0.962,-0.973,-0.983,-0.991,-0.998,-1.002,-1.006,-1.009,-1.012,-1.016,-1.021,-1.029,-1.038,-1.049,-1.061,-1.075,-1.088,-1.101,-1.112,-1.121,-1.129,-1.134,-1.138,-1.141,-1.144,-1.148,-1.153,-1.16,-1.169,-1.179,-1.192,-1.205,-1.219,-1.231,-1.242,-1.25,-1.256,-1.258,-1.257,-1.254,-1.248,-1.242,-1.235,-1.228,-1.222,-1.218,-1.214,-1.212,-1.21,-1.207,-1.204,-1.199,-1.192,-1.182,-1.17,-1.155,-1.139,-1.121,-1.102,-1.083,-1.066,-1.049,-1.034,-1.02,-1.007,-0.994,-0.981,-0.968,-0.953,-0.938,-0.921,-0.903,-0.885,-0.867,-0.851,-0.838,-0.827,-0.821,-0.818,-0.82,-0.825,-0.834,-0.845,-0.857,-0.869,-0.881,-0.892,-0.902,-0.91,-0.918,-0.925,-0.931,-0.939,-0.948,-0.958,-0.97,-0.983,-0.997,-1.011,-1.025,-1.037,-1.046,-1.052,-1.055,-1.055,-1.051,-1.044,-1.036,-1.027,-1.019,-1.011,-1.005,-1.001,-0.998,-0.998,-0.999,-1,-1.002,-1.004,-1.004,-1.004,-1.002,-1.001,-0.999,-0.998,-0.998,-1,-1.004,-1.011,-1.02,-1.031,-1.044,-1.056,-1.068,-1.079,-1.087,-1.092,-1.094,-1.093,-1.09,-1.084,-1.077,-1.069,-1.062,-1.055,-1.049,-1.043,-1.038,-1.032,-1.026,-1.018,-1.008,-0.996,-0.98,-0.963,-0.943,-0.921,-0.899,-0.878,-0.858,-0.84,-0.825,-0.812,-0.803,-0.796,-0.791,-0.787,-0.784,-0.78,-0.776,-0.771,-0.764,-0.758,-0.751,-0.745,-0.74,-0.738,-0.737,-0.74,-0.746,-0.754,-0.764,-0.775,-0.787,-0.798,-0.808,-0.816,-0.823,-0.828,-0.832,-0.835,-0.839,-0.843,-0.849,-0.857,-0.868,-0.88,-0.895,-0.911,-0.927,-0.944,-0.959,-0.973,-0.985,-0.995,-1.003,-1.011,-1.017,-1.024,-1.032,-1.041,-1.052,-1.065,-1.079,-1.094,-1.11,-1.125,-1.138,-1.15,-1.16,-1.166,-1.17,-1.172,-1.172,-1.171,-1.17,-1.169,-1.17,-1.173,-1.177,-1.182,-1.187,-1.193,-1.198,-1.202,-1.203,-1.201,-1.197,-1.191,-1.182,-1.172,-1.163,-1.153,-1.145,-1.139,-1.135,-1.133,-1.132,-1.133,-1.134,-1.135,-1.134,-1.131,-1.126,-1.118,-1.107,-1.095,-1.081,-1.066,-1.051,-1.036,-1.022,-1.008,-0.994,-0.98,-0.966,-0.949,-0.931,-0.909,-0.885,-0.857,-0.826,-0.793,-0.758,-0.723,-0.689,-0.656,-0.626,-0.599,-0.576,-0.556,-0.539,-0.524,-0.511,-0.498,-0.485,-0.471,-0.456,-0.439,-0.421,-0.403,-0.383,-0.364,-0.345,-0.326,-0.309,-0.291,-0.274,-0.257,-0.239,-0.22,-0.2,-0.177,-0.154,-0.129,-0.103,-0.078,-0.056,-0.036,-0.02,-0.01,-0.005,-0.006,-0.014,-0.027,-0.046,-0.069,-0.095,-0.124,-0.156,-0.188,-0.222,-0.258,-0.295,-0.334,-0.377,-0.422,-0.471,-0.523,-0.579,-0.637,-0.697,-0.757,-0.817,-0.876,-0.932,-0.984,-1.033,-1.078,-1.119,-1.156,-1.19,-1.222,-1.252,-1.28,-1.307,-1.332,-1.356,-1.376,-1.394,-1.409,-1.42,-1.426,-1.428,-1.427,-1.422,-1.415,-1.406,-1.397,-1.389,-1.382,-1.378,-1.375,-1.374,-1.375,-1.377,-1.378,-1.378,-1.377,-1.373,-1.366,-1.356,-1.344,-1.33,-1.314,-1.297,-1.281,-1.265,-1.25,-1.236,-1.223,-1.21,-1.197,-1.183,-1.168,-1.15,-1.13,-1.107,-1.081,-1.052,-1.022,-0.989,-0.954,-0.918,-0.88,-0.839,-0.795,-0.746,-0.692,-0.631,-0.56,-0.48,-0.389,-0.286,-0.172,-0.046,0.089,0.234,0.387,0.545,0.706,0.868,1.029,1.186,1.337,1.479,1.611,1.729,1.83,1.911,1.97,2.001,2.002,1.97,1.9,1.792,1.642,1.451,1.217,0.944,0.634,0.29,-0.082,-0.477,-0.887,-1.306,-1.727,-2.141,-2.542,-2.924,-3.281,-3.606,-3.897,-4.148,-4.357,-4.522,-4.641,-4.713,-4.739,-4.72,-4.658,-4.555,-4.415,-4.242,-4.042,-3.821,-3.583,-3.336,-3.086,-2.838,-2.597,-2.367,-2.153,-1.956,-1.779,-1.622,-1.485,-1.367,-1.267,-1.185,-1.118,-1.065,-1.024,-0.995,-0.975,-0.963,-0.959,-0.96,-0.966,-0.975,-0.984,-0.993,-1,-1.003,-1.002,-0.994,-0.981,-0.961,-0.936,-0.905,-0.871,-0.834,-0.796,-0.758,-0.721,-0.685,-0.652,-0.621,-0.593,-0.566,-0.54,-0.515,-0.491,-0.466,-0.442,-0.418,-0.394,-0.372,-0.351,-0.332,-0.315,-0.301,-0.288,-0.277,-0.267,-0.256,-0.244,-0.229,-0.211,-0.189,-0.163,-0.133,-0.099,-0.063,-0.025,0.013,0.052,0.088,0.122,0.154,0.181,0.206,0.228,0.247,0.264,0.279,0.293,0.306,0.317,0.327,0.336,0.342,0.345,0.345,0.343,0.338,0.33,0.321,0.312,0.304,0.297,0.293,0.292,0.295,0.301,0.311,0.324,0.339,0.354,0.369,0.382,0.394,0.403,0.409,0.413,0.414,0.413,0.412,0.41,0.408,0.406,0.405,0.404,0.402,0.4,0.396,0.39,0.382,0.372,0.359,0.345,0.329,0.313,0.298,0.284,0.271,0.261,0.254,0.249,0.246,0.244,0.243,0.242,0.239,0.236,0.231,0.224,0.216,0.208,0.2,0.193,0.188,0.185,0.185,0.187,0.191,0.197,0.204,0.211,0.217,0.221,0.223,0.223,0.221,0.217,0.213,0.208,0.203,0.2,0.199,0.2,0.203,0.208,0.215,0.221,0.227,0.232,0.236,0.237,0.235,0.231,0.226,0.218,0.209,0.2,0.191,0.181,0.171,0.16,0.148,0.134,0.117,0.096,0.071,0.041,0.006,-0.032,-0.076,-0.122,-0.171,-0.221,-0.27,-0.319,-0.366,-0.411,-0.454,-0.495,-0.536,-0.575,-0.615,-0.656,-0.697,-0.74,-0.784,-0.828,-0.872,-0.916,-0.958,-0.998,-1.036,-1.071,-1.104,-1.134,-1.162,-1.19,-1.217,-1.245,-1.273,-1.303,-1.335,-1.367,-1.4,-1.432,-1.464,-1.494,-1.522,-1.546,-1.567,-1.585,-1.6,-1.612,-1.623,-1.633,-1.642,-1.651,-1.661,-1.67,-1.679,-1.688,-1.695,-1.7,-1.703,-1.703,-1.7,-1.695,-1.687,-1.678,-1.669,-1.66,-1.652,-1.646,-1.643,-1.642,-1.643,-1.645,-1.649,-1.652,-1.653,-1.653,-1.65,-1.643,-1.633,-1.621,-1.606,-1.589,-1.572,-1.555,-1.54,-1.525,-1.513,-1.502,-1.493,-1.485,-1.477,-1.469,-1.46,-1.451,-1.441,-1.43,-1.418,-1.408,-1.399,-1.391,-1.387,-1.385,-1.387,-1.391,-1.397,-1.405,-1.414,-1.423,-1.43,-1.435,-1.438,-1.439,-1.438,-1.435,-1.431,-1.427,-1.424,-1.422,-1.423,-1.426,-1.432,-1.44,-1.449,-1.459,-1.47,-1.479,-1.488,-1.495,-1.501,-1.506,-1.509,-1.512,-1.516,-1.519,-1.524,-1.529,-1.534,-1.54,-1.545,-1.549,-1.55,-1.549,-1.543,-1.534,-1.521,-1.504,-1.484,-1.463,-1.44,-1.418,-1.397,-1.377,-1.359,-1.343,-1.329,-1.317,-1.305,-1.293,-1.281,-1.267,-1.251,-1.234,-1.216,-1.196,-1.176,-1.156,-1.137,-1.118,-1.101,-1.086,-1.071,-1.057,-1.043,-1.028,-1.011,-0.991,-0.97,-0.945,-0.918,-0.89,-0.86,-0.831,-0.802,-0.776,-0.753,-0.733,-0.717,-0.705,-0.696,-0.689,-0.683,-0.678,-0.673,-0.667,-0.66,-0.652,-0.642,-0.631,-0.62,-0.609,-0.598,-0.587,-0.578,-0.569,-0.56,-0.551,-0.541,-0.529,-0.515,-0.498,-0.479,-0.459,-0.436,-0.413,-0.39,-0.368,-0.349,-0.333,-0.321,-0.313,-0.309,-0.309,-0.312,-0.316,-0.322,-0.328,-0.334,-0.339,-0.343,-0.346,-0.349,-0.353,-0.357,-0.363,-0.37,-0.379,-0.391,-0.404,-0.417,-0.431,-0.445,-0.457,-0.467,-0.475,-0.481,-0.484,-0.486,-0.487,-0.488,-0.489,-0.491,-0.495,-0.501,-0.508,-0.516,-0.525,-0.534,-0.541,-0.546,-0.548,-0.547,-0.543,-0.537,-0.528,-0.518,-0.508,-0.498,-0.489,-0.483,-0.478,-0.476,-0.476,-0.477,-0.479,-0.48,-0.481,-0.481,-0.479,-0.475,-0.47,-0.464,-0.458,-0.452,-0.446,-0.442,-0.44,-0.438,-0.438,-0.439,-0.439,-0.439,-0.438,-0.435,-0.43,-0.424,-0.416,-0.408,-0.4,-0.393,-0.388,-0.386,-0.387,-0.392,-0.4,-0.412,-0.426,-0.441,-0.458,-0.474,-0.489,-0.503,-0.514,-0.524,-0.533,-0.54,-0.547,-0.554,-0.561,-0.569,-0.577,-0.585,-0.594,-0.601,-0.606,-0.608,-0.608,-0.604,-0.597,-0.587,-0.574,-0.559,-0.544,-0.529,-0.516,-0.505,-0.497,-0.492,-0.49,-0.491,-0.494,-0.498,-0.503,-0.507,-0.511,-0.514,-0.516,-0.518,-0.519,-0.521,-0.523,-0.527,-0.532,-0.539,-0.547,-0.555,-0.563,-0.569,-0.573,-0.574,-0.571,-0.563,-0.551,-0.536,-0.517,-0.496,-0.474,-0.451,-0.43,-0.41,-0.393,-0.379,-0.367,-0.357,-0.349,-0.342,-0.335,-0.328,-0.321,-0.314,-0.307,-0.3,-0.293,-0.287,-0.282,-0.279,-0.277,-0.276,-0.276,-0.275,-0.273,-0.269,-0.263,-0.253,-0.241,-0.225,-0.206,-0.185,-0.164,-0.142,-0.122,-0.104,-0.089,-0.078,-0.07,-0.065,-0.063,-0.063,-0.064,-0.066,-0.067,-0.068,-0.068,-0.068,-0.068,-0.069,-0.072,-0.076,-0.083,-0.094,-0.107,-0.124,-0.143,-0.163,-0.184,-0.205,-0.225,-0.244,-0.261,-0.276,-0.29,-0.303,-0.316,-0.329,-0.343,-0.359,-0.376,-0.396,-0.416,-0.438,-0.459,-0.48,-0.498,-0.514,-0.528,-0.538,-0.545,-0.549,-0.552,-0.553,-0.554,-0.556,-0.558,-0.562,-0.567,-0.574,-0.58,-0.587,-0.593,-0.598,-0.6,-0.601,-0.6,-0.596,-0.592,-0.586,-0.581,-0.577,-0.574,-0.573,-0.574,-0.577,-0.58,-0.584,-0.587,-0.589,-0.589,-0.586,-0.58,-0.572,-0.561,-0.547,-0.533,-0.518,-0.503,-0.49,-0.477,-0.465,-0.455,-0.445,-0.434,-0.423,-0.409,-0.393,-0.375,-0.353,-0.33,-0.304,-0.278,-0.251,-0.227,-0.204,-0.184,-0.168,-0.156,-0.147,-0.142,-0.139,-0.138,-0.139,-0.139,-0.14,-0.14,-0.14,-0.139,-0.139,-0.139,-0.14,-0.142,-0.145,-0.149,-0.153,-0.157,-0.16,-0.162,-0.161,-0.157,-0.149,-0.139,-0.125,-0.11,-0.094,-0.078,-0.063,-0.051,-0.042,-0.037,-0.036,-0.039,-0.046,-0.057,-0.069,-0.084,-0.099,-0.115,-0.131,-0.148,-0.164,-0.181,-0.199,-0.219,-0.241,-0.266,-0.292,-0.32,-0.349,-0.379,-0.408,-0.435,-0.459,-0.479,-0.496,-0.509,-0.517,-0.522,-0.523,-0.522,-0.519,-0.515,-0.511,-0.505,-0.499,-0.492,-0.483,-0.472,-0.458,-0.441,-0.421,-0.396,-0.369,-0.339,-0.308,-0.276,-0.245,-0.216,-0.189,-0.165,-0.144,-0.126,-0.112,-0.1,-0.089,-0.079,-0.07,-0.061,-0.052,-0.043,-0.035,-0.028,-0.022,-0.02,-0.021,-0.025,-0.034,-0.047,-0.064,-0.083,-0.105,-0.129,-0.152,-0.176,-0.2,-0.222,-0.244,-0.265,-0.287,-0.308,-0.331,-0.354,-0.379,-0.405,-0.43,-0.456,-0.48,-0.502,-0.52,-0.535,-0.545,-0.55,-0.55,-0.546,-0.539,-0.528,-0.517,-0.505,-0.493,-0.482,-0.473,-0.465,-0.459,-0.453,-0.448,-0.443,-0.437,-0.43,-0.423,-0.415,-0.408,-0.401,-0.397,-0.395,-0.397,-0.403,-0.412,-0.426,-0.442,-0.462,-0.482,-0.503,-0.524,-0.543,-0.56,-0.574,-0.585,-0.595,-0.601,-0.606,-0.61,-0.612,-0.613,-0.612,-0.608,-0.601,-0.589,-0.571,-0.546,-0.512,-0.468,-0.414,-0.35,-0.274,-0.189,-0.093,0.01,0.122,0.241,0.365,0.495,0.628,0.765,0.903,1.043,1.181,1.317,1.449,1.572,1.684,1.781,1.859,1.913,1.94,1.937,1.899,1.824,1.711,1.558,1.367,1.138,0.874,0.577,0.252,-0.095,-0.463,-0.844,-1.233,-1.623,-2.008,-2.382,-2.738,-3.071,-3.374,-3.642,-3.871,-4.057,-4.196,-4.286,-4.327,-4.319,-4.264,-4.165,-4.026,-3.852,-3.648,-3.421,-3.178,-2.923,-2.663,-2.404,-2.149,-1.903,-1.669,-1.45,-1.247,-1.062,-0.896,-0.749,-0.622,-0.514,-0.426,-0.355,-0.303,-0.267,-0.245,-0.236,-0.237,-0.246,-0.26,-0.276,-0.292,-0.306,-0.316,-0.32,-0.318,-0.309,-0.295,-0.275,-0.251,-0.224,-0.194,-0.164,-0.133,-0.103,-0.074,-0.045,-0.016,0.011,0.039,0.067,0.096,0.124,0.152,0.179,0.204,0.228,0.248,0.265,0.279,0.29,0.299,0.306,0.312,0.318,0.325,0.334,0.344,0.357,0.372,0.389,0.406,0.424,0.442,0.458,0.472,0.485,0.495,0.504,0.512,0.519,0.525,0.533,0.541,0.551,0.561,0.572,0.583,0.593,0.602,0.608,0.612,0.612,0.608,0.602,0.593,0.583,0.571,0.56,0.549,0.54,0.534,0.529,0.525,0.523,0.522,0.52,0.518,0.513,0.507,0.499,0.489,0.478,0.466,0.454,0.443,0.434,0.426,0.42,0.416,0.413,0.411,0.41,0.407,0.403,0.398,0.39,0.382,0.371,0.361,0.351,0.341,0.334,0.33,0.329,0.331,0.335,0.342,0.351,0.361,0.371,0.38,0.389,0.396,0.403,0.409,0.415,0.422,0.431,0.442,0.455,0.471,0.489,0.509,0.53,0.551,0.572,0.591,0.609,0.623,0.636,0.646,0.654,0.662,0.67,0.679,0.69,0.703,0.718,0.736,0.757,0.778,0.8,0.822,0.844,0.863,0.88,0.895,0.908,0.919,0.928,0.937,0.944,0.951,0.958,0.964,0.969,0.972,0.972,0.969,0.961,0.948,0.93,0.906,0.877,0.843,0.805,0.763,0.719,0.674,0.627,0.581,0.534,0.486,0.437,0.387,0.335,0.28,0.223,0.162,0.099,0.034,-0.032,-0.099,-0.165,-0.23,-0.293,-0.353,-0.41,-0.463,-0.514,-0.563,-0.611,-0.658,-0.704,-0.752,-0.8,-0.848,-0.897,-0.945,-0.993,-1.039,-1.082,-1.123,-1.16,-1.194,-1.225,-1.254,-1.282,-1.308,-1.334,-1.361,-1.389,-1.417,-1.446,-1.475,-1.503,-1.53,-1.555,-1.576,-1.594,-1.608,-1.618,-1.625,-1.629,-1.632,-1.633,-1.634,-1.636,-1.638,-1.642,-1.647,-1.652,-1.656,-1.66,-1.662,-1.662,-1.66,-1.654,-1.646,-1.634,-1.621,-1.607,-1.592,-1.576,-1.561,-1.546,-1.532,-1.517,-1.502,-1.485,-1.467,-1.446,-1.423,-1.396,-1.368,-1.337,-1.305,-1.272,-1.24,-1.21,-1.182,-1.156,-1.134,-1.114,-1.096,-1.08,-1.064,-1.048,-1.03,-1.011,-0.99,-0.966,-0.94,-0.913,-0.885,-0.857,-0.829,-0.803,-0.778,-0.756,-0.735,-0.716,-0.698,-0.681,-0.665,-0.648,-0.631,-0.615,-0.599,-0.584,-0.571,-0.561,-0.554,-0.551,-0.552,-0.557,-0.567,-0.579,-0.594,-0.609,-0.624,-0.638,-0.65,-0.659,-0.665,-0.667,-0.667,-0.665,-0.661,-0.657,-0.653,-0.65,-0.648,-0.647,-0.647,-0.648,-0.647,-0.646,-0.644,-0.639,-0.632,-0.624,-0.613,-0.602,-0.59,-0.579,-0.569,-0.562,-0.556,-0.552,-0.55,-0.55,-0.549,-0.549,-0.547,-0.542,-0.536,-0.527,-0.515,-0.502,-0.487,-0.471,-0.456,-0.442,-0.43,-0.42,-0.411,-0.405,-0.399,-0.395,-0.39,-0.386,-0.38,-0.373,-0.365,-0.357,-0.348,-0.34,-0.332,-0.327,-0.324,-0.322,-0.323,-0.326,-0.33,-0.333,-0.336,-0.336,-0.335,-0.329,-0.321,-0.309,-0.294,-0.278,-0.26,-0.242,-0.225,-0.21,-0.196,-0.185,-0.176,-0.169,-0.163,-0.158,-0.152,-0.146,-0.138,-0.129,-0.119,-0.108,-0.096,-0.085,-0.074,-0.066,-0.059,-0.054,-0.052,-0.05,-0.05,-0.05,-0.049,-0.046,-0.042,-0.035,-0.027,-0.017,-0.007,0.003,0.012,0.019,0.023,0.023,0.02,0.013,0.003,-0.008,-0.022,-0.037,-0.052,-0.065,-0.077,-0.087,-0.096,-0.103,-0.109,-0.115,-0.121,-0.127,-0.134,-0.142,-0.151,-0.159,-0.167,-0.173,-0.177,-0.179,-0.179,-0.175,-0.17,-0.162,-0.154,-0.145,-0.137,-0.131,-0.127,-0.125,-0.125,-0.127,-0.131,-0.135,-0.138,-0.14,-0.141,-0.139,-0.135,-0.129,-0.122,-0.115,-0.108,-0.102,-0.098,-0.097,-0.099,-0.105,-0.113,-0.123,-0.135,-0.147,-0.16,-0.172,-0.183,-0.194,-0.204,-0.213,-0.223,-0.234,-0.245,-0.258,-0.273,-0.288,-0.305,-0.321,-0.337,-0.35,-0.362,-0.37,-0.374,-0.375,-0.373,-0.368,-0.36,-0.352,-0.343,-0.335,-0.328,-0.322,-0.319,-0.316,-0.314,-0.312,-0.308,-0.304,-0.297,-0.288,-0.276,-0.263,-0.247,-0.231,-0.216,-0.201,-0.188,-0.178,-0.17,-0.165,-0.162,-0.162,-0.162,-0.163,-0.164,-0.164,-0.164,-0.162,-0.161,-0.158,-0.157,-0.156,-0.157,-0.16,-0.164,-0.171,-0.179,-0.187,-0.195,-0.202,-0.207,-0.21,-0.209,-0.205,-0.198,-0.188,-0.176,-0.163,-0.15,-0.137,-0.126,-0.115,-0.106,-0.098,-0.091,-0.083,-0.075,-0.065,-0.053,-0.039,-0.023,-0.005,0.014,0.034,0.053,0.072,0.088,0.102,0.114,0.123,0.129,0.134,0.138,0.142,0.145,0.149,0.154,0.16,0.166,0.172,0.177,0.181,0.183,0.183,0.181,0.176,0.169,0.161,0.153,0.145,0.138,0.132,0.129,0.127,0.127,0.128,0.13,0.131,0.13,0.127,0.121,0.111,0.099,0.084,0.067,0.049,0.03,0.012,-0.003,-0.018,-0.031,-0.041,-0.05,-0.058,-0.066,-0.074,-0.083,-0.093,-0.105,-0.119,-0.134,-0.149,-0.165,-0.18,-0.195,-0.207,-0.217,-0.226,-0.232,-0.238,-0.242,-0.246,-0.25,-0.254,-0.26,-0.265,-0.271,-0.276,-0.281,-0.283,-0.283,-0.28,-0.273,-0.264,-0.252,-0.238,-0.223,-0.208,-0.194,-0.182,-0.172,-0.164,-0.159,-0.156,-0.154,-0.153,-0.152,-0.149,-0.145,-0.139,-0.13,-0.119,-0.106,-0.092,-0.078,-0.063,-0.05,-0.038,-0.026,-0.017,-0.007,0.001,0.01,0.02,0.033,0.047,0.063,0.081,0.101,0.121,0.141,0.16,0.178,0.193,0.206,0.216,0.224,0.23,0.236,0.241,0.247,0.254,0.264,0.276,0.29,0.305,0.322,0.338,0.354,0.369,0.381,0.39,0.397,0.401,0.402,0.402,0.4,0.398,0.396,0.393,0.391,0.388,0.384,0.379,0.373,0.364,0.352,0.337,0.32,0.3,0.278,0.256,0.234,0.214,0.195,0.179,0.166,0.156,0.149,0.144,0.14,0.137,0.134,0.131,0.127,0.122,0.116,0.11,0.104,0.1,0.097,0.097,0.099,0.104,0.112,0.122,0.133,0.144,0.155,0.165,0.174,0.18,0.185,0.188,0.19,0.191,0.192,0.194,0.196,0.199,0.203,0.208,0.212,0.214,0.215,0.212,0.206,0.196,0.181,0.163,0.141,0.117,0.09,0.063,0.037,0.011,-0.012,-0.034,-0.054,-0.073,-0.09,-0.107,-0.123,-0.138,-0.154,-0.169,-0.183,-0.196,-0.206,-0.213,-0.216,-0.214,-0.206,-0.194,-0.176,-0.155,-0.13,-0.103,-0.074,-0.046,-0.017,0.008,0.033,0.057,0.079,0.1,0.12,0.14,0.159,0.179,0.198,0.217,0.234,0.25,0.262,0.271,0.276,0.277,0.274,0.267,0.257,0.245,0.232,0.219,0.207,0.197,0.189,0.183,0.18,0.179,0.179,0.18,0.183,0.185,0.189,0.194,0.201,0.21,0.224,0.244,0.271,0.305,0.349,0.402,0.465,0.537,0.618,0.707,0.803,0.905,1.011,1.12,1.231,1.342,1.452,1.56,1.663,1.76,1.848,1.924,1.986,2.029,2.051,2.047,2.014,1.95,1.851,1.716,1.544,1.336,1.093,0.818,0.513,0.184,-0.164,-0.528,-0.9,-1.275,-1.647,-2.009,-2.356,-2.683,-2.984,-3.254,-3.489,-3.685,-3.84,-3.95,-4.015,-4.034,-4.008,-3.937,-3.825,-3.675,-3.491,-3.279,-3.044,-2.792,-2.529,-2.261,-1.992,-1.728,-1.472,-1.228,-0.998,-0.784,-0.587,-0.407,-0.245,-0.101,0.025,0.134,0.228,0.306,0.368,0.417,0.453,0.478,0.493,0.5,0.502,0.501,0.498,0.495,0.495,0.498,0.506,0.517,0.532,0.55,0.571,0.592,0.614,0.634,0.653,0.669,0.683,0.694,0.703,0.71,0.716,0.721,0.726,0.73,0.733,0.736,0.737,0.736,0.733,0.727,0.718,0.707,0.694,0.68,0.665,0.651,0.64,0.631,0.626,0.625,0.628,0.635,0.644,0.656,0.669,0.682,0.694,0.704,0.712,0.718,0.721,0.723,0.723,0.724,0.724,0.725,0.728,0.731,0.735,0.739,0.743,0.746,0.747,0.747,0.744,0.739,0.733,0.725,0.717,0.71,0.704,0.7,0.698,0.698,0.701,0.705,0.711,0.716,0.722,0.725,0.727,0.728,0.726,0.722,0.718,0.714,0.711,0.709,0.709,0.712,0.718,0.727,0.738,0.75,0.763,0.777,0.79,0.803,0.815,0.826,0.837,0.848,0.859,0.872,0.887,0.904,0.923,0.944,0.966,0.988,1.01,1.031,1.049,1.065,1.078,1.088,1.095,1.101,1.105,1.11,1.116,1.123,1.132,1.145,1.159,1.176,1.194,1.213,1.231,1.249,1.265,1.28,1.292,1.303,1.313,1.321,1.33,1.339,1.349,1.36,1.372,1.384,1.395,1.406,1.414,1.42,1.422,1.42,1.414,1.404,1.39,1.373,1.354,1.334,1.314,1.293,1.273,1.254,1.234,1.213,1.192,1.168,1.142,1.113,1.08,1.043,1.004,0.961,0.917,0.871,0.824,0.778,0.732,0.686,0.641,0.596,0.55,0.502,0.453,0.4,0.344,0.285,0.223,0.159,0.092,0.025,-0.04,-0.106,-0.169,-0.23,-0.287,-0.341,-0.393,-0.442,-0.49,-0.536,-0.582,-0.627,-0.672,-0.717,-0.761,-0.803,-0.843,-0.88,-0.914,-0.943,-0.969,-0.991,-1.01,-1.027,-1.041,-1.055,-1.069,-1.083,-1.097,-1.113,-1.129,-1.145,-1.161,-1.175,-1.187,-1.196,-1.201,-1.203,-1.202,-1.199,-1.193,-1.186,-1.179,-1.172,-1.166,-1.161,-1.156,-1.153,-1.149,-1.144,-1.138,-1.129,-1.117,-1.102,-1.084,-1.063,-1.039,-1.015,-0.99,-0.966,-0.944,-0.924,-0.907,-0.893,-0.881,-0.871,-0.863,-0.856,-0.848,-0.84,-0.831,-0.822,-0.811,-0.8,-0.79,-0.78,-0.771,-0.763,-0.757,-0.753,-0.749,-0.746,-0.742,-0.737,-0.73,-0.72,-0.708,-0.693,-0.676,-0.658,-0.638,-0.619,-0.602,-0.586,-0.574,-0.565,-0.559,-0.556,-0.555,-0.557,-0.559,-0.561,-0.562,-0.562,-0.561,-0.558,-0.555,-0.551,-0.548,-0.546,-0.545,-0.547,-0.55,-0.555,-0.562,-0.57,-0.577,-0.584,-0.589,-0.592,-0.593,-0.592,-0.589,-0.585,-0.581,-0.577,-0.573,-0.572,-0.572,-0.574,-0.577,-0.582,-0.586,-0.59,-0.592,-0.591,-0.588,-0.583,-0.574,-0.564,-0.552,-0.54,-0.528,-0.517,-0.508,-0.501,-0.496,-0.494,-0.492,-0.492,-0.492,-0.492,-0.491,-0.488,-0.484,-0.479,-0.473,-0.467,-0.461,-0.456,-0.454,-0.452,-0.453,-0.455,-0.458,-0.462,-0.465,-0.466,-0.465,-0.461,-0.454,-0.444,-0.432,-0.417,-0.401,-0.385,-0.368,-0.353,-0.34,-0.327,-0.317,-0.307,-0.298,-0.289,-0.278,-0.267,-0.253,-0.237,-0.22,-0.2,-0.181,-0.161,-0.142,-0.125,-0.109,-0.096,-0.085,-0.076,-0.068,-0.062,-0.055,-0.048,-0.039,-0.029,-0.017,-0.004,0.008,0.022,0.036,0.048,0.059,0.069,0.076,0.082,0.087,0.091,0.096,0.102,0.11,0.12,0.133,0.147,0.163,0.18,0.197,0.212,0.226,0.237,0.244,0.249,0.25,0.249,0.246,0.242,0.238,0.235,0.233,0.233,0.234,0.237,0.24,0.244,0.248,0.25,0.252,0.252,0.25,0.247,0.244,0.24,0.238,0.236,0.236,0.238,0.242,0.247,0.253,0.259,0.264,0.267,0.268,0.267,0.263,0.257,0.249,0.24,0.231,0.221,0.214,0.207,0.203,0.2,0.199,0.199,0.198,0.197,0.194,0.188,0.181,0.171,0.159,0.145,0.13,0.116,0.103,0.091,0.081,0.074,0.069,0.065,0.063,0.061,0.058,0.054,0.049,0.041,0.031,0.02,0.007,-0.005,-0.017,-0.028,-0.038,-0.045,-0.049,-0.051,-0.052,-0.051,-0.049,-0.047,-0.047,-0.047,-0.048,-0.05,-0.052,-0.054,-0.056,-0.055,-0.052,-0.046,-0.037,-0.025,-0.01,0.007,0.026,0.045,0.065,0.085,0.103,0.12,0.136,0.152,0.167,0.183,0.2,0.218,0.238,0.26,0.283,0.306,0.329,0.351,0.371,0.388,0.403,0.414,0.422,0.427,0.43,0.431,0.433,0.435,0.438,0.443,0.449,0.456,0.465,0.473,0.481,0.487,0.49,0.491,0.489,0.484,0.477,0.468,0.458,0.448,0.439,0.431,0.424,0.419,0.414,0.41,0.406,0.402,0.395,0.388,0.378,0.367,0.354,0.341,0.328,0.317,0.308,0.302,0.299,0.3,0.304,0.311,0.32,0.33,0.339,0.348,0.355,0.359,0.36,0.358,0.354,0.348,0.34,0.332,0.323,0.313,0.304,0.294,0.284,0.273,0.26,0.245,0.227,0.208,0.186,0.163,0.14,0.116,0.094,0.074,0.058,0.046,0.037,0.033,0.033,0.035,0.04,0.046,0.052,0.058,0.063,0.067,0.069,0.071,0.073,0.075,0.078,0.083,0.09,0.099,0.111,0.124,0.138,0.153,0.167,0.18,0.191,0.2,0.207,0.212,0.217,0.221,0.226,0.233,0.241,0.252,0.266,0.283,0.302,0.323,0.344,0.366,0.387,0.408,0.427,0.445,0.461,0.478,0.494,0.511,0.529,0.549,0.569,0.589,0.61,0.63,0.648,0.663,0.675,0.681,0.682,0.679,0.67,0.658,0.641,0.623,0.603,0.583,0.563,0.544,0.526,0.508,0.49,0.472,0.453,0.433,0.41,0.385,0.358,0.33,0.3,0.269,0.239,0.211,0.184,0.159,0.136,0.116,0.098,0.082,0.067,0.052,0.038,0.023,0.009,-0.004,-0.017,-0.029,-0.038,-0.045,-0.048,-0.048,-0.044,-0.037,-0.027,-0.016,-0.004,0.007,0.017,0.025,0.031,0.033,0.032,0.03,0.025,0.02,0.014,0.009,0.005,0.003,0.002,0.002,0.004,0.005,0.006,0.006,0.005,0.004,0.002,0,0,0.001,0.005,0.015,0.029,0.049,0.076,0.109,0.148,0.193,0.243,0.297,0.356,0.419,0.485,0.555,0.629,0.707,0.791,0.88,0.974,1.073,1.177,1.285,1.395,1.505,1.613,1.716,1.813,1.899,1.973,2.033,2.075,2.098,2.1,2.079,2.035,1.965,1.869,1.746,1.595,1.416,1.209,0.974,0.713,0.428,0.122,-0.2,-0.536,-0.878,-1.222,-1.561,-1.888,-2.197,-2.482,-2.739,-2.963,-3.15,-3.299,-3.409,-3.478,-3.509,-3.501,-3.458,-3.382,-3.275,-3.14,-2.981,-2.801,-2.603,-2.393,-2.172,-1.947,-1.72,-1.496,-1.278,-1.07,-0.876,-0.698,-0.537,-0.394,-0.271,-0.166,-0.078,-0.006,0.052,0.099,0.136,0.167,0.192,0.214,0.233,0.25,0.266,0.282,0.296,0.311,0.325,0.339,0.354,0.371,0.389,0.409,0.431,0.455,0.48,0.507,0.534,0.559,0.582,0.601,0.616,0.624,0.627,0.623,0.614,0.599,0.581,0.56,0.538,0.516,0.497,0.48,0.466,0.456,0.45,0.447,0.448,0.451,0.457,0.464,0.474,0.485,0.498,0.514,0.533,0.554,0.578,0.605,0.634,0.665,0.695,0.725,0.753,0.779,0.8,0.817,0.829,0.836,0.839,0.839,0.837,0.833,0.829,0.825,0.823,0.822,0.823,0.825,0.828,0.831,0.834,0.836,0.836,0.836,0.835,0.833,0.831,0.83,0.83,0.832,0.836,0.843,0.852,0.862,0.873,0.884,0.894,0.902,0.907,0.909,0.908,0.905,0.899,0.892,0.884,0.877,0.871,0.867,0.865,0.866,0.87,0.875,0.882,0.89,0.898,0.906,0.915,0.923,0.931,0.94,0.95,0.962,0.976,0.993,1.013,1.035,1.06,1.085,1.111,1.136,1.16,1.18,1.198,1.211,1.221,1.227,1.23,1.231,1.23,1.228,1.225,1.222,1.218,1.215,1.21,1.205,1.197,1.188,1.176,1.162,1.145,1.127,1.109,1.09,1.071,1.055,1.04,1.028,1.019,1.012,1.006,1,0.995,0.988,0.978,0.966,0.95,0.93,0.907,0.88,0.851,0.82,0.788,0.755,0.722,0.688,0.653,0.618,0.581,0.541,0.499,0.454,0.405,0.353,0.297,0.239,0.179,0.118,0.058,-0.001,-0.059,-0.116,-0.17,-0.222,-0.273,-0.323,-0.373,-0.423,-0.473,-0.524,-0.576,-0.629,-0.68,-0.731,-0.78,-0.826,-0.868,-0.906,-0.94,-0.97,-0.996,-1.019,-1.04,-1.059,-1.077,-1.095,-1.113,-1.131,-1.149,-1.166,-1.182,-1.196,-1.208,-1.217,-1.223,-1.226,-1.226,-1.224,-1.22,-1.216,-1.211,-1.206,-1.202,-1.199,-1.196,-1.194,-1.19,-1.186,-1.179,-1.17,-1.159,-1.144,-1.127,-1.109,-1.09,-1.071,-1.052,-1.037,-1.023,-1.013,-1.007,-1.003,-1.002,-1.002,-1.003,-1.004,-1.004,-1.002,-0.998,-0.991,-0.983,-0.972,-0.961,-0.949,-0.936,-0.925,-0.914,-0.903,-0.893,-0.883,-0.872,-0.86,-0.847,-0.833,-0.816,-0.798,-0.779,-0.761,-0.743,-0.726,-0.713,-0.703,-0.696,-0.694,-0.695,-0.699,-0.706,-0.713,-0.722,-0.729,-0.736,-0.742,-0.746,-0.749,-0.752,-0.754,-0.757,-0.761,-0.767,-0.775,-0.785,-0.796,-0.807,-0.819,-0.829,-0.838,-0.845,-0.848,-0.848,-0.845,-0.84,-0.833,-0.825,-0.817,-0.809,-0.803,-0.799,-0.796,-0.794,-0.794,-0.794,-0.793,-0.791,-0.788,-0.782,-0.774,-0.765,-0.753,-0.741,-0.728,-0.715,-0.704,-0.693,-0.683,-0.674,-0.665,-0.656,-0.645,-0.633,-0.619,-0.602,-0.582,-0.559,-0.534,-0.508,-0.481,-0.454,-0.428,-0.404,-0.381,-0.361,-0.343,-0.326,-0.31,-0.295,-0.278,-0.261,-0.241,-0.221,-0.198,-0.175,-0.151,-0.128,-0.106,-0.087,-0.069,-0.055,-0.042,-0.033,-0.025,-0.018,-0.011,-0.003,0.004,0.014,0.026,0.039,0.053,0.067,0.081,0.093,0.104,0.112,0.118,0.122,0.124,0.125,0.126,0.127,0.128,0.131,0.136,0.142,0.149,0.156,0.164,0.17,0.175,0.178,0.18,0.179,0.176,0.173,0.17,0.168,0.167,0.169,0.175,0.183,0.195,0.21,0.226,0.244,0.263,0.281,0.298,0.313,0.326,0.338,0.348,0.357,0.366,0.375,0.383,0.392,0.402,0.411,0.42,0.427,0.432,0.435,0.435,0.432,0.426,0.418,0.408,0.397,0.387,0.377,0.37,0.364,0.362,0.362,0.364,0.368,0.371,0.375,0.377,0.377,0.374,0.369,0.361,0.351,0.339,0.327,0.315,0.304,0.295,0.287,0.28,0.275,0.271,0.266,0.261,0.256,0.248,0.239,0.228,0.217,0.204,0.191,0.18,0.169,0.16,0.152,0.146,0.141,0.137,0.132,0.126,0.118,0.107,0.093,0.075,0.055,0.031,0.006,-0.019,-0.045,-0.071,-0.095,-0.118,-0.139,-0.158,-0.176,-0.194,-0.212,-0.23,-0.248,-0.268,-0.288,-0.308,-0.327,-0.345,-0.36,-0.372,-0.379,-0.382,-0.381,-0.375,-0.365,-0.352,-0.336,-0.32,-0.304,-0.288,-0.274,-0.261,-0.249,-0.239,-0.229,-0.219,-0.208,-0.196,-0.183,-0.169,-0.154,-0.138,-0.122,-0.107,-0.092,-0.079,-0.067,-0.057,-0.048,-0.04,-0.031,-0.021,-0.01,0.004,0.021,0.041,0.063,0.087,0.112,0.137,0.16,0.181,0.199,0.213,0.223,0.229,0.232,0.232,0.231,0.229,0.227,0.225,0.225,0.227,0.23,0.233,0.237,0.242,0.246,0.249,0.252,0.255,0.257,0.261,0.266,0.274,0.284,0.299,0.317,0.339,0.364,0.391,0.42,0.45,0.479,0.506,0.532,0.555,0.575,0.593,0.608,0.622,0.634,0.646,0.656,0.667,0.677,0.685,0.692,0.697,0.698,0.695,0.688,0.677,0.661,0.641,0.618,0.593,0.565,0.537,0.509,0.481,0.453,0.427,0.4,0.373,0.345,0.316,0.284,0.249,0.212,0.172,0.13,0.086,0.041,-0.002,-0.045,-0.087,-0.126,-0.163,-0.197,-0.229,-0.259,-0.288,-0.316,-0.343,-0.369,-0.395,-0.419,-0.441,-0.46,-0.475,-0.486,-0.491,-0.49,-0.483,-0.47,-0.451,-0.428,-0.401,-0.372,-0.341,-0.311,-0.281,-0.253,-0.226,-0.2,-0.176,-0.153,-0.131,-0.108,-0.087,-0.065,-0.044,-0.024,-0.005,0.01,0.024,0.034,0.041,0.046,0.047,0.047,0.046,0.045,0.046,0.049,0.056,0.067,0.084,0.105,0.131,0.161,0.195,0.232,0.273,0.317,0.363,0.413,0.466,0.523,0.585,0.653,0.727,0.806,0.891,0.981,1.074,1.171,1.268,1.364,1.458,1.547,1.629,1.704,1.769,1.824,1.866,1.895,1.908,1.906,1.885,1.844,1.781,1.694,1.582,1.443,1.276,1.081,0.858,0.608,0.335,0.041,-0.269,-0.592,-0.922,-1.254,-1.581,-1.899,-2.203,-2.487,-2.748,-2.983,-3.187,-3.36,-3.499,-3.603,-3.672,-3.705,-3.704,-3.668,-3.599,-3.499,-3.371,-3.218,-3.043,-2.85,-2.644,-2.429,-2.211,-1.993,-1.78,-1.574,-1.38,-1.198,-1.031,-0.878,-0.741,-0.618,-0.509,-0.413,-0.327,-0.252,-0.186,-0.129,-0.078,-0.035,0.001,0.033,0.06,0.082,0.102,0.12,0.138,0.156,0.175,0.196,0.221,0.247,0.277,0.308,0.341,0.373,0.404,0.433,0.458,0.48,0.497,0.511,0.521,0.529,0.535,0.541,0.547,0.555,0.564,0.576,0.59,0.606,0.623,0.641,0.66,0.679,0.698,0.717,0.736,0.755,0.775,0.796,0.819,0.844,0.871,0.899,0.929,0.958,0.987,1.013,1.035,1.054,1.067,1.075,1.077,1.075,1.068,1.059,1.047,1.034,1.02,1.007,0.994,0.982,0.971,0.96,0.948,0.935,0.92,0.904,0.886,0.865,0.844,0.821,0.798,0.776,0.754,0.734,0.715,0.697,0.681,0.664,0.648,0.631,0.612,0.592,0.57,0.546,0.522,0.497,0.474,0.452,0.434,0.42,0.41,0.406,0.406,0.411,0.42,0.431,0.444,0.457,0.471,0.483,0.495,0.504,0.513,0.52,0.527,0.534,0.541,0.548,0.555,0.563,0.57,0.577,0.582,0.586,0.589,0.59,0.59,0.589,0.588,0.589,0.591,0.597,0.606,0.619,0.637,0.659,0.685,0.713,0.743,0.773,0.803,0.831,0.858,0.882,0.904,0.923,0.941,0.958,0.974,0.989,1.005,1.021,1.036,1.05,1.063,1.073,1.08,1.084,1.083,1.077,1.068,1.054,1.037,1.018,0.998,0.977,0.957,0.937,0.917,0.899,0.88,0.861,0.84,0.817,0.791,0.762,0.73,0.694,0.655,0.614,0.571,0.527,0.483,0.439,0.396,0.353,0.31,0.267,0.222,0.175,0.126,0.073,0.016,-0.043,-0.106,-0.171,-0.238,-0.305,-0.371,-0.435,-0.497,-0.555,-0.61,-0.662,-0.711,-0.757,-0.802,-0.846,-0.889,-0.931,-0.974,-1.015,-1.055,-1.093,-1.128,-1.16,-1.188,-1.212,-1.233,-1.249,-1.262,-1.272,-1.281,-1.289,-1.296,-1.304,-1.312,-1.32,-1.328,-1.337,-1.344,-1.349,-1.353,-1.355,-1.354,-1.351,-1.346,-1.341,-1.335,-1.33,-1.326,-1.324,-1.324,-1.326,-1.33,-1.335,-1.34,-1.344,-1.346,-1.345,-1.342,-1.335,-1.324,-1.31,-1.294,-1.277,-1.258,-1.239,-1.221,-1.204,-1.188,-1.173,-1.159,-1.145,-1.132,-1.117,-1.102,-1.085,-1.068,-1.05,-1.032,-1.015,-0.999,-0.985,-0.974,-0.966,-0.961,-0.958,-0.956,-0.956,-0.955,-0.953,-0.95,-0.943,-0.934,-0.923,-0.909,-0.893,-0.877,-0.861,-0.847,-0.834,-0.824,-0.817,-0.811,-0.808,-0.806,-0.804,-0.802,-0.799,-0.795,-0.79,-0.783,-0.776,-0.768,-0.76,-0.754,-0.75,-0.747,-0.747,-0.748,-0.751,-0.753,-0.756,-0.757,-0.755,-0.75,-0.741,-0.729,-0.713,-0.694,-0.672,-0.649,-0.625,-0.602,-0.58,-0.559,-0.539,-0.521,-0.504,-0.487,-0.47,-0.452,-0.434,-0.416,-0.396,-0.377,-0.358,-0.34,-0.324,-0.31,-0.3,-0.293,-0.288,-0.287,-0.287,-0.287,-0.288,-0.288,-0.287,-0.284,-0.278,-0.271,-0.262,-0.252,-0.243,-0.235,-0.228,-0.224,-0.222,-0.223,-0.226,-0.23,-0.235,-0.24,-0.245,-0.248,-0.249,-0.248,-0.246,-0.243,-0.24,-0.237,-0.235,-0.236,-0.239,-0.245,-0.254,-0.264,-0.277,-0.29,-0.303,-0.315,-0.326,-0.335,-0.342,-0.347,-0.351,-0.354,-0.357,-0.36,-0.363,-0.367,-0.371,-0.376,-0.379,-0.381,-0.38,-0.377,-0.369,-0.358,-0.343,-0.324,-0.302,-0.278,-0.254,-0.23,-0.208,-0.189,-0.173,-0.16,-0.152,-0.147,-0.145,-0.145,-0.148,-0.152,-0.156,-0.162,-0.169,-0.176,-0.186,-0.197,-0.21,-0.226,-0.245,-0.265,-0.287,-0.31,-0.332,-0.352,-0.37,-0.384,-0.393,-0.398,-0.398,-0.393,-0.384,-0.373,-0.36,-0.345,-0.331,-0.317,-0.304,-0.292,-0.281,-0.271,-0.261,-0.251,-0.241,-0.23,-0.218,-0.206,-0.195,-0.184,-0.176,-0.17,-0.167,-0.168,-0.172,-0.179,-0.19,-0.202,-0.216,-0.229,-0.242,-0.254,-0.264,-0.271,-0.278,-0.282,-0.287,-0.291,-0.296,-0.303,-0.311,-0.322,-0.334,-0.348,-0.362,-0.377,-0.391,-0.405,-0.416,-0.426,-0.435,-0.442,-0.449,-0.457,-0.465,-0.475,-0.487,-0.502,-0.518,-0.535,-0.554,-0.571,-0.588,-0.602,-0.612,-0.619,