0,0,0,0,0.001,0.005,0.011,0.023,0.043,0.073,0.117,0.179,0.26,0.364,0.491,0.644,0.821,1.021,1.242,1.48,1.732,1.993,2.259,2.524,2.783,3.033,3.269,3.489,3.691,3.871,4.03,4.167,4.281,4.373,4.443,4.492,4.521,4.53,4.523,4.5,4.464,4.416,4.361,4.3,4.237,4.175,4.116,4.063,4.017,3.981,3.955,3.939,3.932,3.935,3.944,3.96,3.98,4.003,4.028,4.053,4.077,4.101,4.124,4.146,4.167,4.186,4.203,4.219,4.232,4.241,4.247,4.249,4.246,4.237,4.224,4.205,4.183,4.157,4.13,4.102,4.075,4.049,4.025,4.005,3.988,3.974,3.963,3.954,3.947,3.94,3.934,3.929,3.923,3.918,3.914,3.912,3.912,3.916,3.922,3.933,3.947,3.964,3.984,4.005,4.027,4.049,4.069,4.088,4.104,4.117,4.127,4.136,4.142,4.147,4.152,4.157,4.162,4.167,4.171,4.175,4.178,4.179,4.177,4.172,4.164,4.152,4.138,4.122,4.104,4.086,4.069,4.053,4.039,4.028,4.018,4.012,4.006,4.002,3.998,3.994,3.988,3.982,3.974,3.965,3.956,3.947,3.94,3.934,3.932,3.933,3.937,3.946,3.957,3.971,3.986,4.003,4.02,4.036,4.052,4.067,4.082,4.097,4.112,4.129,4.147,4.167,4.188,4.212,4.237,4.262,4.287,4.31,4.331,4.349,4.362,4.372,4.377,4.378,4.376,4.372,4.365,4.357,4.349,4.34,4.33,4.32,4.31,4.298,4.284,4.269,4.252,4.234,4.214,4.195,4.178,4.163,4.152,4.148,4.151,4.163,4.183,4.214,4.254,4.305,4.364,4.432,4.508,4.591,4.682,4.78,4.884,4.994,5.111,5.234,5.361,5.491,5.624,5.756,5.884,6.005,6.115,6.21,6.285,6.337,6.361,6.353,6.312,6.233,6.118,5.963,5.77,5.54,5.275,4.976,4.648,4.294,3.919,3.529,3.128,2.725,2.325,1.936,1.564,1.218,0.903,0.627,0.394,0.208,0.073,-0.009,-0.039,-0.018,0.05,0.164,0.319,0.508,0.727,0.968,1.227,1.497,1.773,2.05,2.324,2.591,2.848,3.091,3.319,3.529,3.72,3.89,4.038,4.163,4.267,4.349,4.411,4.455,4.483,4.497,4.501,4.498,4.49,4.48,4.471,4.464,4.461,4.462,4.468,4.477,4.491,4.507,4.526,4.547,4.568,4.59,4.613,4.636,4.66,4.684,4.709,4.734,4.759,4.783,4.806,4.826,4.843,4.855,4.862,4.864,4.86,4.852,4.839,4.824,4.806,4.788,4.77,4.754,4.74,4.729,4.721,4.715,4.712,4.711,4.711,4.712,4.714,4.716,4.719,4.723,4.728,4.736,4.747,4.76,4.777,4.798,4.821,4.846,4.873,4.899,4.925,4.948,4.968,4.984,4.997,5.007,5.013,5.017,5.019,5.02,5.022,5.024,5.028,5.032,5.037,5.043,5.049,5.054,5.057,5.06,5.061,5.062,5.061,5.061,5.062,5.065,5.07,5.079,5.091,5.106,5.124,5.144,5.166,5.187,5.209,5.228,5.245,5.26,5.272,5.281,5.289,5.295,5.3,5.305,5.31,5.316,5.323,5.33,5.336,5.343,5.348,5.352,5.354,5.354,5.353,5.351,5.349,5.348,5.349,5.352,5.359,5.37,5.385,5.404,5.426,5.451,5.477,5.503,5.529,5.552,5.574,5.593,5.609,5.623,5.634,5.644,5.653,5.662,5.67,5.677,5.684,5.689,5.693,5.695,5.694,5.689,5.68,5.668,5.653,5.635,5.615,5.593,5.572,5.55,5.53,5.511,5.493,5.476,5.458,5.44,5.419,5.396,5.37,5.34,5.306,5.269,5.227,5.183,5.136,5.088,5.039,4.989,4.939,4.888,4.836,4.783,4.728,4.67,4.61,4.546,4.48,4.411,4.34,4.269,4.198,4.128,4.06,3.996,3.935,3.879,3.827,3.778,3.732,3.689,3.648,3.607,3.568,3.529,3.491,3.454,3.418,3.385,3.354,3.327,3.303,3.283,3.266,3.252,3.24,3.229,3.219,3.209,3.198,3.185,3.172,3.157,3.143,3.128,3.115,3.104,3.096,3.09,3.088,3.088,3.091,3.096,3.101,3.107,3.112,3.116,3.119,3.12,3.122,3.123,3.124,3.128,3.133,3.14,3.151,3.163,3.178,3.194,3.211,3.228,3.243,3.256,3.266,3.274,3.28,3.284,3.287,3.289,3.293,3.297,3.305,3.314,3.327,3.342,3.359,3.377,3.397,3.416,3.435,3.454,3.471,3.488,3.504,3.521,3.539,3.558,3.579,3.602,3.626,3.653,3.68,3.707,3.733,3.757,3.778,3.796,3.81,3.821,3.828,3.833,3.837,3.839,3.842,3.845,3.85,3.856,3.863,3.872,3.88,3.889,3.896,3.902,3.906,3.909,3.91,3.91,3.91,3.91,3.911,3.914,3.92,3.928,3.939,3.952,3.966,3.98,3.994,4.007,4.018,4.026,4.031,4.034,4.036,4.035,4.035,4.034,4.035,4.037,4.041,4.046,4.053,4.06,4.068,4.076,4.083,4.09,4.094,4.098,4.101,4.104,4.107,4.111,4.117,4.125,4.135,4.147,4.161,4.175,4.189,4.202,4.213,4.222,4.227,4.229,4.228,4.224,4.218,4.211,4.204,4.196,4.19,4.185,4.181,4.178,4.176,4.173,4.171,4.167,4.162,4.156,4.149,4.141,4.133,4.127,4.122,4.121,4.123,4.129,4.139,4.154,4.171,4.191,4.213,4.235,4.257,4.278,4.297,4.314,4.33,4.345,4.359,4.373,4.388,4.404,4.422,4.441,4.461,4.482,4.503,4.523,4.541,4.558,4.571,4.582,4.59,4.596,4.599,4.602,4.604,4.606,4.608,4.611,4.616,4.62,4.625,4.629,4.632,4.633,4.633,4.63,4.624,4.617,4.609,4.601,4.593,4.587,4.582,4.58,4.58,4.583,4.587,4.592,4.597,4.601,4.603,4.603,4.6,4.595,4.587,4.578,4.568,4.559,4.55,4.544,4.54,4.539,4.541,4.545,4.551,4.558,4.566,4.573,4.58,4.586,4.591,4.595,4.599,4.603,4.607,4.612,4.618,4.626,4.633,4.641,4.648,4.654,4.657,4.657,4.653,4.646,4.634,4.62,4.603,4.584,4.565,4.546,4.529,4.514,4.501,4.49,4.482,4.475,4.469,4.464,4.457,4.45,4.442,4.433,4.423,4.412,4.402,4.393,4.385,4.38,4.378,4.379,4.382,4.387,4.393,4.4,4.408,4.414,4.42,4.424,4.428,4.43,4.431,4.432,4.434,4.436,4.44,4.444,4.449,4.454,4.458,4.462,4.464,4.463,4.459,4.453,4.444,4.433,4.421,4.409,4.398,4.39,4.384,4.382,4.384,4.39,4.4,4.413,4.428,4.444,4.46,4.476,4.491,4.505,4.518,4.53,4.542,4.555,4.568,4.583,4.599,4.616,4.635,4.654,4.673,4.69,4.706,4.72,4.73,4.738,4.743,4.746,4.747,4.748,4.748,4.75,4.754,4.76,4.767,4.776,4.787,4.798,4.809,4.82,4.829,4.836,4.842,4.847,4.851,4.855,4.86,4.865,4.872,4.881,4.892,4.903,4.916,4.928,4.939,4.948,4.953,4.955,4.954,4.948,4.939,4.928,4.914,4.9,4.886,4.873,4.861,4.851,4.843,4.836,4.83,4.825,4.819,4.813,4.805,4.796,4.786,4.776,4.765,4.755,4.747,4.74,4.735,4.733,4.733,4.735,4.737,4.74,4.742,4.742,4.74,4.736,4.729,4.719,4.708,4.696,4.684,4.672,4.662,4.654,4.649,4.645,4.643,4.643,4.643,4.643,4.642,4.639,4.636,4.631,4.625,4.618,4.612,4.607,4.603,4.602,4.604,4.607,4.614,4.621,4.63,4.639,4.648,4.656,4.662,4.666,4.669,4.672,4.674,4.677,4.681,4.688,4.697,4.709,4.724,4.741,4.76,4.779,4.799,4.817,4.834,4.85,4.863,4.874,4.883,4.892,4.9,4.909,4.918,4.928,4.94,4.952,4.965,4.977,4.988,4.997,5.004,5.007,5.007,5.004,4.999,4.991,4.983,4.974,4.966,4.96,4.956,4.953,4.952,4.953,4.954,4.955,4.955,4.953,4.949,4.943,4.935,4.926,4.916,4.906,4.898,4.891,4.887,4.887,4.889,4.895,4.903,4.913,4.925,4.937,4.948,4.96,4.97,4.98,4.989,4.999,5.009,5.02,5.032,5.046,5.061,5.076,5.091,5.105,5.117,5.125,5.13,5.13,5.124,5.114,5.1,5.082,5.061,5.038,5.014,4.989,4.965,4.942,4.918,4.895,4.872,4.848,4.822,4.795,4.766,4.735,4.703,4.67,4.638,4.607,4.578,4.553,4.532,4.515,4.503,4.495,4.491,4.49,4.491,4.494,4.498,4.502,4.507,4.513,4.519,4.526,4.535,4.547,4.561,4.578,4.598,4.62,4.644,4.668,4.692,4.714,4.735,4.752,4.767,4.778,4.786,4.792,4.796,4.799,4.803,4.807,4.811,4.817,4.824,4.831,4.838,4.844,4.848,4.851,4.851,4.849,4.844,4.839,4.832,4.826,4.821,4.818,4.819,4.823,4.832,4.846,4.864,4.888,4.916,4.949,4.988,5.032,5.082,5.139,5.204,5.278,5.362,5.456,5.56,5.675,5.798,5.929,6.067,6.207,6.349,6.487,6.62,6.743,6.854,6.949,7.024,7.078,7.107,7.109,7.082,7.024,6.933,6.807,6.645,6.447,6.212,5.943,5.64,5.307,4.948,4.567,4.172,3.769,3.365,2.969,2.587,2.228,1.898,1.603,1.348,1.136,0.971,0.852,0.78,0.755,0.774,0.836,0.935,1.071,1.237,1.431,1.647,1.882,2.13,2.387,2.647,2.906,3.159,3.401,3.63,3.842,4.033,4.203,4.351,4.476,4.58,4.664,4.73,4.78,4.817,4.843,4.862,4.874,4.882,4.887,4.891,4.893,4.895,4.897,4.899,4.902,4.907,4.914,4.924,4.937,4.953,4.974,4.999,5.028,5.06,5.094,5.13,5.165,5.199,5.231,5.259,5.284,5.305,5.322,5.336,5.348,5.358,5.368,5.378,5.389,5.401,5.415,5.431,5.447,5.463,5.48,5.495,5.51,5.523,5.535,5.547,5.558,5.569,5.581,5.595,5.611,5.629,5.65,5.671,5.694,5.717,5.739,5.759,5.777,5.792,5.805,5.814,5.821,5.827,5.832,5.837,5.842,5.849,5.858,5.868,5.878,5.89,5.9,5.91,5.917,5.922,5.923,5.921,5.916,5.908,5.899,5.888,5.877,5.867,5.858,5.85,5.843,5.838,5.833,5.828,5.822,5.815,5.807,5.796,5.784,5.771,5.758,5.744,5.732,5.721,5.712,5.706,5.703,5.701,5.702,5.703,5.705,5.706,5.705,5.703,5.699,5.693,5.686,5.678,5.67,5.662,5.656,5.652,5.65,5.65,5.651,5.653,5.655,5.657,5.657,5.656,5.653,5.648,5.641,5.633,5.625,5.617,5.611,5.607,5.606,5.607,5.612,5.618,5.627,5.636,5.646,5.655,5.663,5.669,5.673,5.676,5.678,5.678,5.679,5.68,5.682,5.685,5.689,5.693,5.697,5.701,5.703,5.702,5.699,5.692,5.682,5.668,5.651,5.632,5.612,5.59,5.569,5.548,5.527,5.507,5.487,5.467,5.445,5.421,5.394,5.364,5.33,5.292,5.25,5.206,5.159,5.111,5.063,5.015,4.968,4.922,4.878,4.835,4.793,4.751,4.709,4.666,4.622,4.576,4.53,4.483,4.436,4.39,4.345,4.303,4.263,4.227,4.195,4.165,4.138,4.114,4.09,4.067,4.044,4.02,3.995,3.97,3.945,3.92,3.896,3.874,3.854,3.837,3.823,3.811,3.802,3.795,3.789,3.782,3.776,3.768,3.758,3.748,3.736,3.724,3.712,3.702,3.694,3.688,3.686,3.688,3.693,3.701,3.712,3.724,3.738,3.752,3.766,3.779,3.792,3.805,3.818,3.831,3.845,3.861,3.878,3.898,3.919,3.941,3.964,3.986,4.008,4.027,4.043,4.056,4.066,4.073,4.077,4.08,4.083,4.086,4.09,4.096,4.105,4.117,4.131,4.146,4.163,4.181,4.198,4.214,4.229,4.241,4.253,4.262,4.271,4.279,4.287,4.295,4.304,4.313,4.323,4.332,4.34,4.346,4.349,4.349,4.346,4.339,4.329,4.316,4.301,4.285,4.269,4.254,4.241,4.23,4.222,4.216,4.212,4.209,4.208,4.206,4.204,4.202,4.198,4.194,4.19,4.187,4.184,4.184,4.186,4.191,4.199,4.21,4.223,4.238,4.254,4.27,4.285,4.299,4.311,4.321,4.33,4.338,4.346,4.354,4.363,4.374,4.387,4.402,4.419,4.436,4.454,4.472,4.488,4.502,4.513,4.521,4.527,4.53,4.531,4.532,4.532,4.534,4.537,4.542,4.549,4.558,4.57,4.582,4.594,4.606,4.617,4.626,4.634,4.64,4.645,4.65,4.654,4.659,4.666,4.674,4.685,4.697,4.712,4.727,4.742,4.757,4.772,4.784,4.795,4.805,4.813,4.82,4.827,4.834,4.843,4.854,4.866,4.882,4.899,4.918,4.937,4.956,4.975,4.991,5.005,5.016,5.025,5.031,5.035,5.037,5.039,5.04,5.043,5.045,5.049,5.053,5.056,5.06,5.061,5.061,5.058,5.052,5.043,5.032,5.018,5.004,4.989,4.975,4.963,4.952,4.944,4.938,4.934,4.932,4.93,4.927,4.924,4.918,4.911,4.901,4.889,4.875,4.86,4.845,4.83,4.816,4.804,4.793,4.785,4.777,4.771,4.765,4.76,4.754,4.748,4.741,4.734,4.727,4.72,4.715,4.713,4.713,4.716,4.723,4.733,4.746,4.761,4.776,4.792,4.806,4.819,4.828,4.835,4.838,4.839,4.837,4.835,4.831,4.828,4.826,4.825,4.825,4.826,4.829,4.831,4.834,4.835,4.835,4.833,4.83,4.825,4.819,4.813,4.807,4.803,4.8,4.799,4.8,4.803,4.807,4.813,4.818,4.822,4.824,4.824,4.822,4.818,4.811,4.804,4.796,4.788,4.781,4.775,4.772,4.77,4.77,4.771,4.773,4.774,4.774,4.773,4.769,4.763,4.755,4.746,4.735,4.725,4.716,4.708,4.703,4.701,4.701,4.704,4.708,4.714,4.721,4.727,4.733,4.738,4.741,4.743,4.744,4.746,4.747,4.75,4.754,4.761,4.769,4.779,4.79,4.802,4.814,4.824,4.833,4.84,4.844,4.845,4.845,4.843,4.84,4.837,4.834,4.833,4.834,4.836,4.84,4.845,4.85,4.855,4.858,4.861,4.861,4.859,4.855,4.85,4.845,4.839,4.835,4.832,4.831,4.833,4.838,4.845,4.853,4.863,4.872,4.882,4.89,4.897,4.903,4.906,4.909,4.912,4.914,4.917,4.921,4.926,4.932,4.94,4.948,4.955,4.962,4.966,4.969,4.968,4.965,4.959,4.95,4.94,4.93,4.92,4.91,4.903,4.897,4.894,4.893,4.893,4.894,4.896,4.896,4.896,4.894,4.89,4.885,4.879,4.873,4.867,4.862,4.859,4.858,4.86,4.864,4.871,4.879,4.888,4.898,4.906,4.913,4.919,4.923,4.925,4.926,4.926,4.927,4.929,4.931,4.936,4.942,4.95,4.958,4.967,4.976,4.984,4.989,4.993,4.995,4.994,4.993,4.99,4.988,4.986,4.987,4.989,4.995,5.003,5.013,5.024,5.036,5.047,5.057,5.065,5.069,5.07,5.068,5.063,5.056,5.047,5.037,5.028,5.02,5.013,5.007,5.003,5,4.998,4.995,4.992,4.989,4.984,4.978,4.972,4.966,4.96,4.956,4.954,4.955,4.96,4.968,4.98,4.995,5.011,5.029,5.048,5.066,5.084,5.1,5.114,5.127,5.139,5.15,5.161,5.173,5.185,5.197,5.21,5.223,5.236,5.246,5.254,5.258,5.259,5.255,5.246,5.232,5.215,5.195,5.172,5.148,5.124,5.1,5.078,5.056,5.035,5.015,4.996,4.975,4.954,4.931,4.907,4.882,4.855,4.828,4.801,4.775,4.751,4.729,4.709,4.693,4.679,4.668,4.658,4.649,4.64,4.631,4.621,4.61,4.599,4.587,4.576,4.566,4.558,4.553,4.552,4.554,4.56,4.57,4.583,4.597,4.613,4.628,4.644,4.657,4.67,4.681,4.69,4.698,4.707,4.715,4.724,4.735,4.747,4.76,4.774,4.788,4.803,4.816,4.827,4.837,4.844,4.849,4.852,4.853,4.854,4.855,4.857,4.861,4.867,4.875,4.886,4.899,4.914,4.931,4.949,4.969,4.99,5.012,5.038,5.067,5.101,5.141,5.189,5.246,5.312,5.388,5.474,5.569,5.672,5.783,5.899,6.018,6.138,6.257,6.374,6.485,6.59,6.686,6.772,6.844,6.902,6.942,6.961,6.959,6.93,6.873,6.786,6.666,6.513,6.325,6.103,5.85,5.566,5.256,4.925,4.578,4.22,3.857,3.497,3.145,2.807,2.488,2.194,1.929,1.696,1.498,1.338,1.218,1.137,1.097,1.097,1.135,1.211,1.321,1.462,1.63,1.82,2.028,2.249,2.476,2.706,2.932,3.151,3.359,3.554,3.733,3.895,4.04,4.169,4.281,4.378,4.462,4.533,4.593,4.643,4.684,4.717,4.743,4.763,4.777,4.788,4.795,4.801,4.807,4.813,4.822,4.835,4.851,4.871,4.896,4.924,4.955,4.987,5.02,5.052,5.081,5.108,5.13,5.148,5.163,5.174,5.182,5.188,5.194,5.199,5.204,5.21,5.217,5.225,5.234,5.242,5.251,5.259,5.267,5.275,5.283,5.292,5.303,5.316,5.332,5.351,5.375,5.402,5.433,5.466,5.5,5.535,5.569,5.601,5.63,5.656,5.677,5.694,5.708,5.719,5.727,5.734,5.741,5.747,5.753,5.76,5.766,5.772,5.778,5.782,5.784,5.784,5.781,5.777,5.772,5.765,5.759,5.753,5.749,5.747,5.748,5.751,5.755,5.762,5.768,5.775,5.78,5.784,5.785,5.783,5.779,5.773,5.766,5.758,5.749,5.742,5.736,5.732,5.73,5.73,5.731,5.733,5.735,5.738,5.739,5.74,5.74,5.739,5.739,5.738,5.739,5.741,5.746,5.752,5.761,5.772,5.784,5.796,5.808,5.818,5.827,5.833,5.837,5.838,5.837,5.834,5.831,5.827,5.825,5.824,5.825,5.828,5.833,5.839,5.846,5.852,5.858,5.862,5.863,5.862,5.859,5.854,5.847,5.838,5.829,5.82,5.812,5.803,5.795,5.787,5.778,5.767,5.755,5.74,5.722,5.701,5.678,5.652,5.624,5.596,5.568,5.542,5.517,5.494,5.473,5.454,5.437,5.42,5.403,5.384,5.363,5.339,5.312,5.282,5.248,5.211,5.172,5.132,5.09,5.049,5.006,4.964,4.922,4.879,4.835,4.789,4.741,4.69,4.637,4.582,4.524,4.466,4.408,4.35,4.295,4.242,4.193,4.148,4.107,4.071,4.037,4.007,3.978,3.95,3.923,3.896,3.869,3.842,3.816,3.79,3.766,3.743,3.724,3.707,3.692,3.681,3.671,3.664,3.657,3.651,3.644,3.638,3.63,3.623,3.615,3.608,3.603,3.601,3.601,3.604,3.611,3.621,3.634,3.648,3.663,3.678,3.692,3.704,3.713,3.72,3.724,3.725,3.725,3.724,3.724,3.724,3.727,3.732,3.739,3.749,3.76,3.773,3.787,3.8,3.813,3.825,3.835,3.845,3.854,3.862,3.871,3.881,3.892,3.905,3.919,3.933,3.949,3.963,3.976,3.987,3.994,3.998,3.998,3.994,3.986,3.977,3.965,3.954,3.943,3.933,3.925,3.92,3.918,3.917,3.918,3.92,3.923,3.925,3.926,3.926,3.925,3.923,3.92,3.918,3.915,3.914,3.913,3.913,3.914,3.915,3.916,3.915,3.913,3.908,3.901,3.891,3.878,3.864,3.848,3.833,3.819,3.807,3.799,3.794,3.794,3.799,3.808,3.82,3.835,3.852,3.87,3.889,3.907,3.925,3.943,3.96,3.979,3.997,4.017,4.038,4.061,4.084,4.108,4.132,4.156,4.177,4.196,4.211,4.224,4.233,4.239,4.242,4.244,4.246,4.249,4.253,4.259,4.268,4.279,4.293,4.309,4.325,4.342,4.359,4.375,4.389,4.402,4.413,4.424,4.434,4.445,4.457,4.47,4.486,4.505,4.525,4.546,4.569,4.591,4.613,4.632,4.65,4.665,4.677,4.686,4.694,4.701,4.707,4.713,4.719,4.727,4.736,4.745,4.755,4.764,4.773,4.779,4.784,4.787,4.787,4.786,4.783,4.779,4.776,4.774,4.775,4.777,4.783,4.791,4.802,4.814,4.827,4.841,4.853,4.863,4.871,4.876,4.879,4.879,4.877,4.875,4.871,4.867,4.864,4.861,4.858,4.855,4.851,4.847,4.841,4.833,4.822,4.81,4.796,4.781,4.765,4.749,4.735,4.724,4.715,4.709,4.705,4.705,4.706,4.709,4.712,4.714,4.714,4.712,4.708,4.702,4.694,4.684,4.674,4.663,4.654,4.646,4.64,4.635,4.632,4.63,4.628,4.625,4.62,4.614,4.605,4.594,4.581,4.566,4.55,4.533,4.517,4.502,4.488,4.476,4.465,4.455,4.445,4.436,4.425,4.412,4.397,4.381,4.362,4.341,4.32,4.299,4.278,4.26,4.243,4.23,4.219,4.211,4.205,4.2,4.196,4.192,4.188,4.182,4.175,4.167,4.157,4.148,4.139,4.13,4.124,4.12,4.118,4.118,4.12,4.123,4.128,4.132,4.136,4.138,4.14,4.14,4.14,4.139,4.139,4.14,4.144,4.15,4.16,4.173,4.188,4.206,4.226,4.247,4.267,4.287,4.304,4.32,4.334,4.345,4.356,4.366,4.376,4.386,4.398,4.411,4.425,4.441,4.457,4.473,4.489,4.503,4.516,4.526,4.533,4.539,4.543,4.545,4.548,4.552,4.557,4.564,4.573,4.585,4.598,4.612,4.627,4.641,4.653,4.664,4.671,4.676,4.679,4.679,4.678,4.675,4.673,4.672,4.671,4.671,4.673,4.674,4.676,4.677,4.676,4.672,4.666,4.656,4.643,4.628,4.611,4.593,4.574,4.556,4.54,4.526,4.514,4.504,4.495,4.489,4.482,4.476,4.469,4.461,4.452,4.442,4.432,4.421,4.41,4.4,4.391,4.385,4.379,4.376,4.373,4.371,4.368,4.364,4.358,4.349,4.338,4.325,4.31,4.293,4.276,4.259,4.244,4.231,4.221,4.215,4.211,4.21,4.211,4.213,4.216,4.219,4.221,4.222,4.222,4.221,4.22,4.219,4.22,4.222,4.226,4.232,4.241,4.251,4.263,4.275,4.287,4.297,4.306,4.313,4.317,4.319,4.319,4.319,4.319,4.319,4.321,4.326,4.333,4.343,4.356,4.37,4.387,4.403,4.42,4.436,4.451,4.465,4.478,4.49,4.502,4.515,4.529,4.546,4.564,4.585,4.608,4.633,4.66,4.686,4.713,4.739,4.764,4.787,4.808,4.828,4.847,4.865,4.883,4.901,4.92,4.939,4.959,4.978,4.996,5.011,5.023,5.031,5.033,5.03,5.022,5.007,4.989,4.966,4.94,4.913,4.885,4.856,4.829,4.802,4.775,4.749,4.723,4.696,4.667,4.637,4.604,4.569,4.533,4.495,4.457,4.42,4.384,4.35,4.319,4.29,4.264,4.24,4.219,4.198,4.178,4.158,4.138,4.117,4.096,4.075,4.055,4.036,4.02,4.007,3.998,3.993,3.992,3.995,4.001,4.01,4.02,4.03,4.041,4.051,4.061,4.069,4.078,4.086,4.095,4.106,4.119,4.135,4.153,4.174,4.197,4.221,4.246,4.271,4.294,4.316,4.336,4.354,4.37,4.385,4.399,4.413,4.428,4.445,4.463,4.485,4.51,4.537,4.567,4.599,4.633,4.67,4.708,4.75,4.794,4.842,4.895,4.953,5.019,5.092,5.173,5.262,5.358,5.462,5.57,5.683,5.797,5.911,6.022,6.129,6.229,6.32,6.401,6.47,6.524,6.563,6.585,6.588,6.569,6.527,6.46,6.365,6.241,6.088,5.903,5.688,5.443,5.171,4.875,4.558,4.225,3.882,3.533,3.186,2.845,2.517,2.207,1.918,1.657,1.424,1.225,1.06,0.931,0.839,0.785,0.768,0.788,0.842,0.93,1.048,1.193,1.361,1.549,1.751,1.962,2.177,2.392,2.601,2.802,2.991,3.165,3.322,3.463,3.586,3.694,3.786,3.864,3.931,3.986,4.033,4.072,4.105,4.132,4.154,4.172,4.186,4.198,4.208,4.216,4.224,4.233,4.244,4.257,4.273,4.291,4.313,4.336,4.362,4.387,4.413,4.437,4.458,4.476,4.491,4.502,4.51,4.516,4.52,4.523,4.527,4.532,4.538,4.546,4.557,4.569,4.582,4.596,4.61,4.625,4.639,4.652,4.666,4.68,4.695,4.712,4.731,4.753,4.779,4.808,4.84,4.874,4.909,4.946,4.981,5.015,5.047,5.075,5.101,5.123,5.143,5.16,5.175,5.19,5.203,5.217,5.23,5.243,5.255,5.265,5.272,5.277,5.278,5.275,5.267,5.256,5.242,5.225,5.206,5.186,5.167,5.149,5.132,5.117,5.104,5.092,5.081,5.071,5.062,5.051,5.041,5.03,5.019,5.008,4.998,4.99,4.985,4.982,4.983,4.988,4.995,5.005,5.017,5.03,5.043,5.055,5.064,5.072,5.077,5.079,5.08,5.079,5.078,5.076,5.075,5.076,5.077,5.08,5.084,5.089,5.093,5.097,5.099,5.101,5.101,5.1,5.098,5.096,5.096,5.097,5.101,5.108,5.117,5.13,5.145,5.162,5.18,5.197,5.213,5.226,5.236,5.243,5.245,5.245,5.241,5.235,5.227,5.219,5.21,5.201,5.193,5.184,5.175,5.166,5.155,5.142,5.127,5.11,5.09,5.07,5.048,5.026,5.005,4.984,4.966,4.949,4.934,4.92,4.906,4.892,4.875,4.855,4.83,4.8,4.765,4.723,4.675,4.622,4.565,4.504,4.441,4.375,4.309,4.243,4.176,4.109,4.042,3.974,3.906,3.838,3.768,3.699,3.63,3.562,3.496,3.433,3.373,3.318,3.268,3.223,3.183,3.147,3.114,3.084,3.056,3.029,3.001,2.973,2.944,2.915,2.885,2.856,2.828,2.803,2.78,2.76,2.744,2.732,2.722,2.716,2.711,2.708,2.706,2.704,2.703,2.702,2.702,2.703,2.707,2.713,2.722,2.736,2.753,2.775,2.799,2.827,2.857,2.887,2.917,2.947,2.974,3,3.024,3.046,3.066,3.086,3.105,3.125,3.146,3.167,3.189,3.211,3.232,3.253,3.271,3.287,3.299,3.308,3.313,3.315,3.315,3.313,3.31,3.307,3.305,3.303,3.304,3.306,3.308,3.312,3.314,3.317,3.317,3.316,3.312,3.307,3.299,3.29,3.281,3.271,3.262,3.254,3.246,3.239,3.233,3.225,3.217,3.206,3.192,3.175,3.154,3.129,3.1,3.069,3.035,3.001,2.968,2.935,2.905,2.877,2.852,2.831,2.812,2.795,2.781,2.768,2.757,2.747,2.738,2.731,2.726,2.724,2.726,2.732,2.743,2.759,2.78,2.806,2.835,2.867,2.9,2.934,2.967,2.999,3.029,3.058,3.084,3.109,3.133,3.158,3.183,3.209,3.237,3.267,3.298,3.331,3.363,3.396,3.428,3.458,3.487,3.514,3.539,3.563,3.587,3.61,3.635,3.66,3.687,3.716,3.745,3.776,3.806,3.834,3.86,3.883,3.902,3.917,3.926,3.932,3.933,3.931,3.927,3.921,3.915,3.909,3.904,3.899,3.895,3.891,3.886,3.881,3.875,3.867,3.858,3.848,3.837,3.826,3.817,3.809,3.804,3.802,3.803,3.808,3.816,3.826,3.837,3.848,3.86,3.869,3.877,3.882,3.885,3.887,3.886,3.885,3.884,3.883,3.884,3.885,3.888,3.892,3.896,3.9,3.904,3.906,3.907,3.907,3.905,3.902,3.898,3.896,3.894,3.895,3.899,3.906,3.916,3.928,3.944,3.96,3.978,3.995,4.011,4.024,4.036,4.044,4.05,4.054,4.057,4.059,4.06,4.062,4.064,4.067,4.071,4.075,4.078,4.081,4.083,4.083,4.081,4.078,4.074,4.07,4.066,4.063,4.062,4.063,4.068,4.076,4.087,4.1,4.114,4.129,4.143,4.155,4.164,4.17,4.173,4.171,4.167,4.159,4.15,4.139,4.127,4.115,4.102,4.089,4.076,4.062,4.046,4.029,4.009,3.986,3.96,3.932,3.902,3.872,3.84,3.81,3.781,3.754,3.73,3.708,3.689,3.671,3.655,3.639,3.622,3.605,3.587,3.567,3.546,3.524,3.503,3.483,3.465,3.449,3.437,3.428,3.423,3.421,3.421,3.424,3.428,3.432,3.435,3.438,3.44,3.441,3.442,3.443,3.445,3.448,3.452,3.459,3.469,3.48,3.492,3.506,3.52,3.533,3.545,3.556,3.565,3.572,3.579,3.584,3.59,3.597,3.606,3.617,3.63,3.645,3.663,3.681,3.701,3.719,3.737,3.752,3.765,3.775,3.783,3.788,3.792,3.794,3.797,3.799,3.803,3.808,3.815,3.822,3.83,3.837,3.844,3.85,3.854,3.856,3.857,3.856,3.855,3.854,3.854,3.856,3.86,3.866,3.875,3.887,3.899,3.912,3.925,3.936,3.945,3.951,3.953,3.952,3.947,3.94,3.931,3.921,3.91,3.9,3.89,3.881,3.873,3.866,3.858,3.85,3.841,3.831,3.819,3.805,3.789,3.773,3.756,3.74,3.725,3.712,3.702,3.694,3.688,3.684,3.681,3.678,3.675,3.67,3.664,3.655,3.644,3.632,3.618,3.603,3.589,3.577,3.567,3.561,3.558,3.558,3.562,3.569,3.578,3.59,3.602,3.614,3.627,3.64,3.653,3.667,3.682,3.697,3.715,3.734,3.754,3.776,3.798,3.82,3.841,3.86,3.875,3.886,3.893,3.895,3.894,3.888,3.879,3.869,3.857,3.845,3.834,3.823,3.813,3.803,3.792,3.781,3.768,3.751,3.732,3.709,3.682,3.651,3.618,3.583,3.547,3.511,3.476,3.443,3.413,3.386,3.362,3.341,3.322,3.306,3.292,3.28,3.269,3.261,3.256,3.254,3.256,3.261,3.272,3.287,3.306,3.329,3.355,3.382,3.409,3.436,3.46,3.48,3.496,3.507,3.513,3.514,3.512,3.506,3.497,3.487,3.477,3.466,3.455,3.444,3.433,3.421,3.409,3.396,3.381,3.366,3.349,3.333,3.318,3.304,3.293,3.285,3.283,3.285,3.293,3.306,3.324,3.347,3.373,3.404,3.437,3.473,3.513,3.556,3.603,3.655,3.713,3.778,3.851,3.932,4.022,4.119,4.223,4.333,4.448,4.564,4.679,4.792,4.901,5.001,5.093,5.173,5.24,5.291,5.325,5.341,5.335,5.306,5.251,5.17,5.06,4.92,4.748,4.546,4.314,4.052,3.765,3.456,3.13,2.791,2.447,2.103,1.766,1.442,1.137,0.855,0.602,0.381,0.196,0.047,-0.063,-0.134,-0.166,-0.16,-0.117,-0.038,0.073,0.215,0.385,0.579,0.791,1.018,1.255,1.497,1.738,1.975,2.202,2.417,2.616,2.798,2.96,3.104,3.228,3.334,3.423,3.497,3.557,3.605,3.643,3.671,3.691,3.703,3.71,3.711,3.707,3.7,3.691,3.679,3.668,3.658,3.649,3.643,3.641,3.643,3.648,3.657,3.668,3.68,3.693,3.705,3.716,3.724,3.73,3.734,3.735,3.734,3.733,3.732,3.732,3.734,3.738,3.744,3.753,3.764,3.777,3.79,3.804,3.818,3.831,3.844,3.856,3.868,3.879,3.892,3.906,3.922,3.939,3.958,3.979,4,4.022,4.042,4.061,4.077,4.09,4.099,4.105,4.107,4.107,4.104,4.1,4.096,4.092,4.088,4.086,4.084,4.083,4.081,4.079,4.076,4.07,4.062,4.051,4.038,4.023,4.006,3.989,3.973,3.958,3.945,3.934,3.925,3.919,3.914,3.911,3.908,3.905,3.9,3.895,3.888,3.88,3.872,3.863,3.855,3.849,3.845,3.844,3.846,3.851,3.858,3.868,3.879,3.89,3.901,3.911,3.921,3.929,3.936,3.942,3.949,3.957,3.966,3.977,3.991,4.007,4.026,4.045,4.066,4.087,4.108,4.127,4.144,4.159,4.173,4.185,4.196,4.207,4.22,4.234,4.251,4.27,4.293,4.317,4.343,4.37,4.397,4.423,4.447,4.468,4.486,4.5,4.513,4.522,4.531,4.538,4.545,4.553,4.561,4.57,4.579,4.588,4.595,4.601,4.605,4.604,4.601,4.593,4.581,4.566,4.548,4.528,4.506,4.482,4.459,4.434,4.409,4.382,4.353,4.321,4.286,4.246,4.201,4.151,4.096,4.037,3.973,3.906,3.836,3.765,3.693,3.621,3.549,3.478,3.407,3.336,3.264,3.192,3.12,3.046,2.973,2.899,2.826,2.755,2.686,2.621,2.56,2.503,2.45,2.403,2.359,2.318,2.279,2.241,2.204,2.167,2.128,2.089,2.05,2.01,1.971,1.933,1.898,1.866,1.837,1.812,1.791,1.774,1.76,1.748,1.738,1.728,1.72,1.712,1.704,1.696,1.69,1.686,1.684,1.684,1.689,1.696,1.708,1.722,1.739,1.758,1.778,1.799,1.819,1.838,1.857,1.876,1.894,1.913,1.934,1.956,1.981,2.009,2.039,2.073,2.109,2.146,2.183,2.221,2.256,2.29,2.322,2.351,2.378,2.403,2.427,2.45,2.474,2.498,2.524,2.551,2.58,2.609,2.638,2.666,2.692,2.716,2.736,2.754,2.768,2.779,2.788,2.795,2.801,2.808,2.815,2.822,2.831,2.84,2.85,2.858,2.866,2.872,2.874,2.874,2.87,2.862,2.852,2.839,2.824,2.808,2.792,2.776,2.76,2.745,2.73,2.715,2.699,2.681,2.662,2.64,2.616,2.59,2.562,2.534,2.505,2.477,2.451,2.428,2.407,2.391,2.377,2.366,2.358,2.351,2.345,2.34,2.334,2.329,2.323,2.317,2.311,2.307,2.306,2.306,2.31,2.317,2.328,2.341,2.356,2.373,2.39,2.406,2.421,2.434,2.445,2.454,2.46,2.466,2.471,2.477,2.483,2.491,2.501,2.512,2.525,2.539,2.553,2.567,2.58,2.591,2.6,2.607,2.612,2.616,2.619,2.622,2.625,2.631,2.637,2.646,2.656,2.668,2.679,2.691,2.701,2.71,2.716,2.72,2.721,2.721,2.719,2.717,2.715,2.715,2.716,2.719,2.725,2.732,2.741,2.751,2.761,2.77,2.778,2.784,2.788,2.79,2.79,2.79,2.789,2.789,2.79,2.792,2.796,2.802,2.81,2.818,2.826,2.833,2.838,2.842,2.843,2.841,2.837,2.831,2.824,2.816,2.809,2.802,2.797,2.792,2.789,2.787,2.786,2.784,2.78,2.775,2.768,2.759,2.748,2.735,2.721,2.708,2.695,2.684,2.675,2.669,2.666,2.665,2.667,2.671,2.675,2.68,2.685,2.689,2.693,2.696,2.699,2.702,2.706,2.713,2.722,2.733,2.748,2.765,2.785,2.806,2.828,2.849,2.869,2.888,2.904,2.917,2.928,2.937,2.944,2.95,2.956,2.963,2.969,2.977,2.985,2.993,3.001,3.007,3.011,3.012,3.01,3.005,2.996,2.984,2.97,2.955,2.938,2.922,2.906,2.891,2.878,2.865,2.852,2.84,2.826,2.812,2.795,2.776,2.754,2.73,2.705,2.679,2.653,2.628,2.604,2.583,2.564,2.549,2.536,2.525,2.515,2.507,2.499,2.491,2.483,2.474,2.466,2.458,2.451,2.446,2.443,2.443,2.447,2.454,2.464,2.476,2.49,2.505,2.519,2.532,2.544,2.553,2.56,2.564,2.568,2.57,2.572,2.574,2.577,2.582,2.588,2.595,2.602,2.61,2.617,2.623,2.628,2.63,2.631,2.63,2.629,2.627,2.626,2.627,2.63,2.636,2.646,2.659,2.675,2.693,2.713,2.733,2.753,2.771,2.788,2.802,2.815,2.825,2.834,2.842,2.849,2.857,2.866,2.875,2.885,2.894,2.904,2.912,2.919,2.924,2.926,2.925,2.922,2.918,2.912,2.905,2.9,2.895,2.893,2.892,2.894,2.897,2.902,2.907,2.911,2.914,2.914,2.911,2.904,2.894,2.881,2.865,2.848,2.829,2.81,2.79,2.772,2.754,2.736,2.719,2.701,2.683,2.664,2.644,2.622,2.599,2.576,2.553,2.532,2.512,2.495,2.481,2.472,2.466,2.464,2.465,2.468,2.472,2.476,2.479,2.48,2.48,2.477,2.471,2.465,2.457,2.449,2.441,2.434,2.429,2.425,2.423,2.421,2.42,2.419,2.417,2.415,2.411,2.406,2.401,2.395,2.391,2.388,2.387,2.39,2.396,2.407,2.422,2.44,2.46,2.483,2.506,2.53,2.552,2.572,2.591,2.607,2.622,2.635,2.647,2.659,2.671,2.684,2.697,2.711,2.725,2.739,2.753,2.765,2.775,2.784,2.791,2.798,2.804,2.81,2.818,2.828,2.841,2.859,2.88,2.905,2.934,2.965,2.997,3.03,3.062,3.092,3.12,3.143,3.163,3.18,3.192,3.202,3.21,3.216,3.221,3.224,3.227,3.227,3.226,3.222,3.215,3.203,3.187,3.166,3.14,3.111,3.077,3.041,3.003,2.964,2.925,2.887,2.85,2.813,2.778,2.743,2.708,2.672,2.634,2.596,2.555,2.514,2.472,2.429,2.388,2.349,2.312,2.279,2.249,2.224,2.202,2.184,2.168,2.155,2.143,2.131,2.12,2.108,2.097,2.086,2.076,2.068,2.062,2.059,2.059,2.062,2.068,2.077,2.087,2.097,2.108,2.118,2.125,2.131,2.135,2.136,2.136,2.136,2.135,2.136,2.138,2.142,2.148,2.157,2.168,2.18,2.193,2.205,2.217,2.228,2.237,2.245,2.252,2.26,2.268,2.278,2.291,2.309,2.331,2.358,2.391,2.43,2.475,2.525,2.581,2.642,2.709,2.782,2.861,2.948,3.042,3.146,3.258,3.38,3.51,3.649,3.794,3.943,4.094,4.243,4.388,4.524,4.649,4.758,4.849,4.917,4.962,4.98,4.97,4.929,4.857,4.752,4.613,4.44,4.232,3.991,3.718,3.413,3.081,2.724,2.348,1.958,1.56,1.162,0.769,0.39,0.032,-0.3,-0.6,-0.863,-1.087,-1.267,-1.403,-1.495,-1.543,-1.549,-1.515,-1.443,-1.336,-1.198,-1.033,-0.844,-0.635,-0.411,-0.177,0.063,0.306,0.546,0.779,1.001,1.209,1.4,1.571,1.723,1.853,1.963,2.054,2.127,2.185,2.23,2.264,2.289,2.307,2.321,2.33,2.337,2.342,2.345,2.347,2.348,2.349,2.35,2.352,2.355,2.361,2.37,2.382,2.398,2.417,2.439,2.465,2.491,2.519,2.546,2.572,2.595,2.615,2.632,2.646,2.658,2.667,2.674,2.681,2.689,2.697,2.706,2.717,2.729,2.742,2.756,2.768,2.78,2.791,2.799,2.806,2.811,2.815,2.818,2.821,2.825,2.829,2.835,2.842,2.851,2.859,2.868,2.875,2.882,2.886,2.888,2.887,2.884,2.88,2.874,2.869,2.864,2.861,2.86,2.862,2.866,2.873,2.881,2.89,2.899,2.907,2.913,2.917,2.918,2.917,2.913,2.908,2.902,2.896,2.89,2.885,2.882,2.88,2.879,2.879,2.88,2.88,2.879,2.877,2.873,2.868,2.862,2.856,2.851,2.846,2.844,2.844,2.847,2.852,2.861,2.872,2.884,2.897,2.91,2.922,2.932,2.94,2.946,2.95,2.953,2.956,2.958,2.961,2.965,2.971,2.978,2.985,2.992,2.999,3.005,3.008,3.008,3.005,2.998,2.989,2.978,2.966,2.953,2.942,2.932,2.925,2.921,2.921,2.924,2.93,2.938,2.947,2.957,2.967,2.977,2.987,2.996,3.004,3.013,3.022,3.032,3.043,3.055,3.068,3.08,3.092,3.102,3.109,3.113,3.111,3.104,3.091,3.072,3.048,3.019,2.986,2.95,2.911,2.871,2.83,2.789,2.746,2.703,2.658,2.611,2.561,2.509,2.453,2.395,2.334,2.272,2.209,2.146,2.085,2.027,1.971,1.919,1.871,1.827,1.786,1.747,1.709,1.672,1.636,1.599,1.561,1.523,1.484,1.445,1.407,1.37,1.334,1.3,1.268,1.238,1.208,1.179,1.15,1.12,1.088,1.055,1.02,0.984,0.948,0.911,0.876,0.843,0.814,0.789,0.768,0.753,0.742,0.736,0.733,0.734,0.736,0.74,0.746,0.751,0.757,0.764,0.771,0.78,0.79,0.803,0.817,0.834,0.853,0.872,0.893,0.912,0.931,0.947,0.961,0.972,0.98,0.985,0.989,0.991,0.993,0.996,1.001,1.007,1.016,1.027,1.04,1.054,1.069,1.083,1.097,1.109,1.118,1.126,1.132,1.137,1.14,1.144,1.147,1.152,1.158,1.165,1.172,1.18,1.188,1.194,1.199,1.2,1.199,1.195,1.188,1.178,1.167,1.155,1.143,1.132,1.122,1.114,1.107,1.102,1.099,1.096,1.093,1.089,1.084,1.079,1.072,1.065,1.057,1.051,1.045,1.042,1.042,1.045,1.05,1.059,1.069,1.08,1.092,1.102,1.111,1.118,1.122,1.123,1.121,1.118,1.113,1.109,1.104,1.101,1.1,1.1,1.102,1.106,1.111,1.116,1.122,1.126,1.13,1.134,1.137,1.14,1.143,1.148,1.156,1.166,1.179,1.196,1.215,1.238,1.262,1.287,1.312,1.336,1.358,1.379,1.397,1.413,1.426,1.439,1.45,1.461,1.472,1.484,1.495,1.507,1.518,1.528,1.537,1.542,1.545,1.544,1.54,1.533,1.524,1.513,1.502,1.492,1.484,1.478,1.477,1.478,1.483,1.491,1.502,1.513,1.526,1.538,1.549,1.558,1.567,1.573,1.579,1.584,1.589,1.594,1.599,1.606,1.612,1.619,1.626,1.631,1.634,1.635,1.633,1.628,1.62,1.611,1.6,1.589,1.578,1.57,1.564,1.561,1.561,1.565,1.572,1.581,1.591,1.602,1.613,1.622,1.63,1.636,1.641,1.643,1.645,1.647,1.648,1.649,1.651,1.653,1.655,1.657,1.657,1.656,1.653,1.648,1.64,1.629,1.617,1.605,1.592,1.581,1.571,1.565,1.563,1.564,1.569,1.578,1.59,1.603,1.617,1.632,1.645,1.656,1.665,1.672,1.677,1.681,1.683,1.684,1.686,1.687,1.689,1.692,1.694,1.696,1.697,1.696,1.693,1.688,1.681,1.671,1.66,1.649,1.637,1.626,1.617,1.611,1.607,1.605,1.606,1.609,1.613,1.616,1.619,1.62,1.62,1.616,1.611,1.604,1.595,1.585,1.576,1.568,1.561,1.555,1.551,1.549,1.547,1.546,1.544,1.54,1.536,1.529,1.521,1.511,1.5,1.49,1.48,1.472,1.466,1.462,1.461,1.463,1.466,1.47,1.475,1.479,1.482,1.482,1.481,1.477,1.472,1.465,1.458,1.452,1.446,1.443,1.442,1.444,1.448,1.454,1.461,1.469,1.477,1.483,1.488,1.492,1.494,1.494,1.493,1.493,1.492,1.492,1.494,1.497,1.501,1.506,1.512,1.518,1.522,1.526,1.527,1.527,1.525,1.522,1.518,1.514,1.512,1.511,1.514,1.519,1.527,1.539,1.553,1.569,1.586,1.602,1.617,1.631,1.643,1.653,1.66,1.666,1.671,1.676,1.68,1.686,1.692,1.698,1.704,1.71,1.714,1.716,1.715,1.71,1.701,1.688,1.671,1.651,1.628,1.604,1.58,1.556,1.534,1.513,1.495,1.48,1.466,1.453,1.441,1.43,1.419,1.407,1.395,1.383,1.371,1.36,1.351,1.344,1.34,1.338,1.339,1.342,1.346,1.351,1.355,1.358,1.358,1.356,1.35,1.34,1.327,1.312,1.295,1.277,1.258,1.24,1.224,1.208,1.194,1.181,1.169,1.158,1.146,1.134,1.122,1.109,1.097,1.085,1.075,1.068,1.064,1.064,1.068,1.077,1.09,1.106,1.125,1.145,1.166,1.186,1.205,1.221,1.235,1.247,1.256,1.263,1.27,1.276,1.282,1.288,1.296,1.303,1.311,1.319,1.326,1.331,1.334,1.335,1.334,1.331,1.327,1.322,1.317,1.313,1.312,1.314,1.319,1.327,1.339,1.353,1.37,1.387,1.406,1.423,1.44,1.456,1.47,1.483,1.495,1.506,1.517,1.528,1.54,1.551,1.563,1.574,1.583,1.59,1.595,1.595,1.592,1.584,1.573,1.558,1.54,1.521,1.502,1.483,1.465,1.45,1.438,1.429,1.422,1.417,1.414,1.412,1.41,1.408,1.405,1.401,1.396,1.391,1.387,1.382,1.379,1.377,1.376,1.376,1.377,1.377,1.377,1.374,1.369,1.361,1.35,1.335,1.318,1.299,1.279,1.258,1.24,1.223,1.21,1.2,1.195,1.193,1.194,1.198,1.204,1.212,1.22,1.228,1.236,1.244,1.253,1.262,1.272,1.284,1.298,1.314,1.331,1.35,1.369,1.387,1.404,1.419,1.43,1.438,1.441,1.441,1.436,1.429,1.419,1.408,1.396,1.384,1.372,1.361,1.349,1.338,1.325,1.31,1.293,1.273,1.25,1.224,1.194,1.163,1.13,1.097,1.064,1.033,1.005,0.979,0.957,0.938,0.921,0.907,0.895,0.883,0.873,0.864,0.855,0.847,0.841,0.838,0.837,0.84,0.848,0.859,0.875,0.895,0.917,0.942,0.968,0.994,1.019,1.042,1.063,1.081,1.096,1.109,1.119,1.128,1.136,1.143,1.15,1.156,1.161,1.165,1.166,1.166,1.162,1.155,1.146,1.133,1.118,1.102,1.085,1.069,1.056,1.045,1.039,1.037,1.039,1.047,1.06,1.076,1.097,1.122,1.15,1.182,1.218,1.26,1.307,1.362,1.425,1.497,1.579,1.672,1.775,1.889,2.01,2.139,2.274,2.411,2.549,2.684,2.816,2.94,3.054,3.156,3.242,3.312,3.36,3.386,3.385,3.356,3.294,3.198,3.066,2.896,2.687,2.44,2.157,1.84,1.493,1.121,0.73,0.328,-0.078,-0.482,-0.875,-1.251,-1.602,-1.924,-2.211,-2.46,-2.667,-2.83,-2.948,-3.021,-3.049,-3.033,-2.976,-2.879,-2.745,-2.579,-2.385,-2.168,-1.932,-1.683,-1.427,-1.17,-0.916,-0.67,-0.437,-0.22,-0.022,0.156,0.314,0.451,0.568,0.666,0.747,0.813,0.865,0.906,0.937,0.959,0.974,0.983,0.987,0.987,0.985,0.981,0.976,0.973,0.973,0.976,0.983,0.995,1.013,1.037,1.065,1.097,1.132,1.169,1.206,1.241,1.275,1.305,1.332,1.356,1.376,1.394,1.41,1.425,1.439,1.454,1.469,1.484,1.5,1.516,1.531,1.544,1.557,1.567,1.576,1.583,1.589,1.595,1.601,1.608,1.616,1.627,1.639,1.654,1.67,1.687,1.703,1.719,1.732,1.743,1.75,1.754,1.754,1.751,1.746,1.739,1.731,1.724,1.716,1.709,1.702,1.696,1.689,1.682,1.674,1.663,1.651,1.636,1.619,1.601,1.582,1.563,1.545,1.529,1.516,1.506,1.5,1.496,1.495,1.496,1.497,1.499,1.499,1.498,1.495,1.49,1.483,1.475,1.467,1.459,1.452,1.447,1.444,1.443,1.445,1.449,1.454,1.46,1.465,1.47,1.473,1.475,1.476,1.476,1.475,1.474,1.474,1.476,1.479,1.485,1.493,1.503,1.514,1.525,1.537,1.548,1.558,1.567,1.575,1.582,1.588,1.595,1.604,1.614,1.627,1.642,1.661,1.681,1.704,1.728,1.752,1.775,1.797,1.816,1.833,1.847,1.859,1.868,1.876,1.882,1.889,1.895,1.902,1.909,1.916,1.923,1.928,1.93,1.93,1.925,1.917,1.905,1.889,1.87,1.848,1.824,1.799,1.774,1.749,1.724,1.7,1.676,1.651,1.625,1.597,1.566,1.532,1.494,1.452,1.406,1.357,1.306,1.253,1.199,1.145,1.091,1.038,0.986,0.934,0.881,0.828,0.773,0.717,0.659,0.599,0.537,0.474,0.411,0.348,0.287,0.228,0.172,0.119,0.069,0.022,-0.022,-0.065,-0.107,-0.149,-0.191,-0.234,-0.278,-0.323,-0.369,-0.413,-0.457,-0.499,-0.537,-0.573,-0.605,-0.634,-0.659,-0.681,-0.701,-0.72,-0.737,-0.754,-0.771,-0.786,-0.802,-0.815,-0.827,-0.836,-0.842,-0.844,-0.843,-0.837,-0.828,-0.816,-0.802,-0.787,-0.771,-0.757,-0.743,-0.731,-0.721,-0.711,-0.702,-0.693,-0.683,-0.671,-0.656,-0.639,-0.619,-0.596,-0.572,-0.546,-0.521,-0.495,-0.471,-0.449,-0.429,-0.411,-0.394,-0.379,-0.365,-0.351,-0.336,-0.32,-0.303,-0.285,-0.266,-0.247,-0.228,-0.21,-0.194,-0.18,-0.169,-0.16,-0.153,-0.148,-0.143,-0.139,-0.133,-0.126,-0.116,-0.105,-0.092,-0.078,-0.063,-0.048,-0.035,-0.023,-0.014,-0.009,-0.006,-0.006,-0.008,-0.012,-0.017,-0.022,-0.026,-0.03,-0.032,-0.033,-0.034,-0.035,-0.036,-0.038,-0.042,-0.047,-0.055,-0.064,-0.074,-0.084,-0.094,-0.103,-0.11,-0.114,-0.116,-0.115,-0.112,-0.106,-0.1,-0.093,-0.087,-0.081,-0.076,-0.072,-0.069,-0.066,-0.063,-0.058,-0.053,-0.045,-0.036,-0.024,-0.011,0.003,0.017,0.032,0.044,0.055,0.063,0.069,0.072,0.072,0.071,0.069,0.068,0.067,0.068,0.071,0.077,0.084,0.094,0.104,0.115,0.125,0.134,0.142,0.148,0.153,0.156,0.159,0.161,0.163,0.167,0.171,0.177,0.184,0.192,0.201,0.209,0.216,0.221,0.225,0.226,0.226,0.225,0.223,0.222,0.222,0.224,0.229,0.237,0.248,0.262,0.278,0.296,0.313,0.33,0.345,0.358,0.367,0.373,0.377,0.378,0.376,0.374,0.371,0.369,0.366,0.365,0.364,0.363,0.362,0.36,0.357,0.352,0.346,0.337,0.328,0.318,0.307,0.298,0.289,0.283,0.28,0.278,0.279,0.282,0.286,0.29,0.292,0.293,0.292,0.287,0.28,0.269,0.257,0.243,0.229,0.215,0.202,0.191,0.183,0.177,0.173,0.17,0.169,0.168,0.168,0.166,0.165,0.162,0.16,0.158,0.157,0.157,0.161,0.167,0.176,0.188,0.202,0.218,0.235,0.252,0.267,0.281,0.292,0.301,0.306,0.309,0.31,0.31,0.309,0.308,0.307,0.307,0.307,0.308,0.308,0.307,0.305,0.301,0.295,0.286,0.274,0.261,0.246,0.231,0.216,0.202,0.191,0.182,0.175,0.17,0.168,0.166,0.165,0.163,0.16,0.155,0.147,0.138,0.127,0.115,0.102,0.091,0.08,0.072,0.066,0.063,0.063,0.064,0.066,0.069,0.072,0.073,0.074,0.072,0.07,0.067,0.063,0.06,0.059,0.059,0.061,0.066,0.074,0.083,0.094,0.106,0.117,0.128,0.137,0.144,0.149,0.152,0.155,0.157,0.159,0.162,0.167,0.174,0.183,0.194,0.206,0.219,0.232,0.244,0.255,0.263,0.27,0.274,0.277,0.279,0.28,0.282,0.285,0.29,0.296,0.305,0.315,0.325,0.336,0.346,0.354,0.36,0.363,0.363,0.36,0.355,0.348,0.34,0.333,0.326,0.322,0.319,0.319,0.32,0.323,0.326,0.329,0.332,0.333,0.332,0.328,0.324,0.317,0.31,0.303,0.297,0.292,0.289,0.288,0.288,0.29,0.292,0.294,0.295,0.294,0.29,0.284,0.276,0.264,0.251,0.237,0.222,0.208,0.194,0.182,0.171,0.16,0.151,0.142,0.132,0.121,0.109,0.095,0.08,0.063,0.047,0.03,0.015,0.002,-0.007,-0.014,-0.017,-0.017,-0.014,-0.009,-0.003,0.003,0.009,0.014,0.017,0.019,0.019,0.017,0.016,0.014,0.013,0.013,0.016,0.021,0.027,0.035,0.044,0.054,0.063,0.071,0.077,0.082,0.084,0.086,0.086,0.087,0.088,0.089,0.093,0.098,0.105,0.114,0.124,0.134,0.143,0.152,0.159,0.165,0.168,0.171,0.172,0.174,0.176,0.18,0.186,0.195,0.207,0.222,0.239,0.258,0.277,0.295,0.312,0.327,0.338,0.347,0.352,0.354,0.355,0.353,0.351,0.349,0.346,0.344,0.342,0.34,0.338,0.334,0.328,0.321,0.31,0.297,0.281,0.264,0.245,0.226,0.207,0.19,0.175,0.162,0.152,0.145,0.139,0.135,0.132,0.129,0.125,0.121,0.116,0.111,0.105,0.1,0.096,0.094,0.094,0.097,0.103,0.112,0.123,0.135,0.148,0.16,0.171,0.179,0.185,0.189,0.189,0.188,0.186,0.183,0.18,0.178,0.177,0.179,0.182,0.187,0.194,0.201,0.209,0.217,0.224,0.231,0.238,0.245,0.253,0.263,0.275,0.29,0.308,0.329,0.353,0.38,0.408,0.437,0.466,0.492,0.516,0.536,0.552,0.564,0.572,0.576,0.577,0.576,0.573,0.568,0.563,0.557,0.55,0.542,0.531,0.518,0.502,0.483,0.46,0.434,0.406,0.375,0.343,0.311,0.279,0.249,0.222,0.197,0.174,0.154,0.136,0.119,0.102,0.086,0.07,0.053,0.035,0.018,0.002,-0.012,-0.025,-0.036,-0.043,-0.046,-0.047,-0.044,-0.04,-0.035,-0.029,-0.024,-0.021,-0.02,-0.022,-0.026,-0.032,-0.04,-0.049,-0.058,-0.067,-0.075,-0.082,-0.088,-0.093,-0.097,-0.101,-0.106,-0.113,-0.12,-0.13,-0.141,-0.154,-0.167,-0.18,-0.192,-0.203,-0.211,-0.216,-0.219,-0.219,-0.216,-0.212,-0.206,-0.198,-0.191,-0.182,-0.172,-0.16,-0.144,-0.124,-0.097,-0.063,-0.019,0.034,0.1,0.178,0.267,0.368,0.478,0.598,0.725,0.858,0.995,1.134,1.274,1.413,1.55,1.682,1.807,1.923,2.028,2.117,2.189,2.238,2.262,2.257,2.218,2.145,2.033,1.883,1.693,1.465,1.2,0.902,0.574,0.22,-0.152,-0.538,-0.932,-1.328,-1.718,-2.097,-2.458,-2.797,-3.107,-3.384,-3.624,-3.824,-3.98,-4.09,-4.153,-4.17,-4.14,-4.067,-3.952,-3.801,-3.617,-3.407,-3.175,-2.929,-2.673,-2.415,-2.158,-1.908,-1.668,-1.441,-1.23,-1.036,-0.859,-0.7,-0.56,-0.437,-0.332,-0.243,-0.17,-0.112,-0.068,-0.037,-0.017,-0.006,-0.003,-0.007,-0.013,-0.021,-0.029,-0.034,-0.036,-0.033,-0.025,-0.013,0.004,0.024,0.047,0.071,0.096,0.119,0.141,0.161,0.178,0.193,0.207,0.219,0.231,0.242,0.254,0.265,0.277,0.287,0.297,0.305,0.311,0.314,0.315,0.313,0.309,0.304,0.298,0.294,0.29,0.289,0.292,0.297,0.306,0.318,0.333,0.348,0.365,0.381,0.396,0.41,0.422,0.431,0.44,0.447,0.454,0.461,0.468,0.476,0.485,0.494,0.504,0.514,0.522,0.529,0.533,0.535,0.535,0.532,0.527,0.521,0.515,0.508,0.503,0.5,0.499,0.5,0.502,0.505,0.509,0.513,0.515,0.515,0.513,0.508,0.501,0.492,0.482,0.471,0.46,0.449,0.44,0.432,0.426,0.421,0.416,0.411,0.406,0.4,0.392,0.383,0.372,0.361,0.349,0.338,0.328,0.321,0.317,0.317,0.321,0.329,0.34,0.353,0.368,0.384,0.4,0.414,0.428,0.44,0.451,0.461,0.471,0.481,0.492,0.503,0.516,0.53,0.545,0.56,0.575,0.588,0.6,0.61,0.617,0.622,0.625,0.627,0.629,0.631,0.634,0.639,0.647,0.657,0.67,0.685,0.701,0.718,0.733,0.747,0.758,0.766,0.77,0.771,0.769,0.765,0.759,0.751,0.743,0.735,0.726,0.717,0.706,0.694,0.68,0.662,0.64,0.613,0.581,0.545,0.504,0.459,0.411,0.361,0.309,0.256,0.202,0.148,0.094,0.039,-0.017,-0.075,-0.136,-0.199,-0.265,-0.333,-0.403,-0.475,-0.546,-0.617,-0.686,-0.752,-0.814,-0.872,-0.925,-0.975,-1.021,-1.064,-1.105,-1.146,-1.186,-1.226,-1.267,-1.308,-1.35,-1.391,-1.432,-1.472,-1.51,-1.546,-1.58,-1.612,-1.642,-1.67,-1.698,-1.726,-1.753,-1.782,-1.81,-1.838,-1.866,-1.892,-1.917,-1.938,-1.956,-1.969,-1.978,-1.982,-1.983,-1.98,-1.975,-1.968,-1.96,-1.953,-1.946,-1.94,-1.935,-1.931,-1.926,-1.92,-1.913,-1.904,-1.892,-1.877,-1.86,-1.84,-1.819,-1.797,-1.775,-1.754,-1.734,-1.716,-1.701,-1.688,-1.677,-1.667,-1.657,-1.648,-1.638,-1.628,-1.617,-1.605,-1.594,-1.583,-1.573,-1.565,-1.56,-1.557,-1.558,-1.561,-1.565,-1.571,-1.577,-1.582,-1.586,-1.586,-1.583,-1.577,-1.567,-1.554,-1.539,-1.523,-1.505,-1.488,-1.472,-1.457,-1.443,-1.429,-1.417,-1.405,-1.392,-1.379,-1.365,-1.351,-1.336,-1.321,-1.307,-1.294,-1.284,-1.276,-1.272,-1.271,-1.273,-1.278,-1.285,-1.293,-1.3,-1.307,-1.311,-1.312,-1.31,-1.305,-1.297,-1.287,-1.276,-1.263,-1.251,-1.239,-1.228,-1.219,-1.21,-1.202,-1.193,-1.184,-1.174,-1.162,-1.149,-1.134,-1.118,-1.101,-1.084,-1.068,-1.054,-1.043,-1.034,-1.028,-1.025,-1.024,-1.024,-1.025,-1.026,-1.026,-1.025,-1.022,-1.017,-1.011,-1.004,-0.996,-0.989,-0.983,-0.978,-0.975,-0.973,-0.973,-0.973,-0.973,-0.971,-0.968,-0.963,-0.956,-0.945,-0.932,-0.918,-0.903,-0.888,-0.873,-0.861,-0.851,-0.844,-0.84,-0.838,-0.838,-0.839,-0.841,-0.842,-0.842,-0.84,-0.837,-0.832,-0.825,-0.819,-0.812,-0.806,-0.802,-0.8,-0.8,-0.802,-0.805,-0.81,-0.815,-0.819,-0.823,-0.825,-0.824,-0.822,-0.818,-0.813,-0.807,-0.802,-0.797,-0.793,-0.791,-0.79,-0.79,-0.791,-0.793,-0.793,-0.793,-0.791,-0.788,-0.783,-0.776,-0.769,-0.762,-0.756,-0.752,-0.75,-0.752,-0.756,-0.764,-0.774,-0.786,-0.799,-0.811,-0.823,-0.832,-0.839,-0.844,-0.846,-0.845,-0.843,-0.839,-0.836,-0.832,-0.829,-0.828,-0.827,-0.826,-0.826,-0.825,-0.824,-0.82,-0.815,-0.808,-0.799,-0.788,-0.777,-0.766,-0.755,-0.746,-0.738,-0.733,-0.729,-0.727,-0.725,-0.724,-0.721,-0.717,-0.71,-0.701,-0.689,-0.674,-0.658,-0.64,-0.622,-0.604,-0.589,-0.575,-0.564,-0.555,-0.549,-0.545,-0.541,-0.539,-0.536,-0.533,-0.528,-0.522,-0.515,-0.507,-0.499,-0.492,-0.486,-0.482,-0.48,-0.48,-0.483,-0.487,-0.492,-0.498,-0.503,-0.507,-0.51,-0.511,-0.511,-0.509,-0.508,-0.507,-0.508,-0.51,-0.516,-0.524,-0.536,-0.551,-0.567,-0.586,-0.605,-0.624,-0.642,-0.658,-0.673,-0.686,-0.697,-0.707,-0.717,-0.727,-0.738,-0.75,-0.763,-0.777,-0.791,-0.806,-0.819,-0.831,-0.84,-0.846,-0.85,-0.85,-0.847,-0.843,-0.838,-0.834,-0.83,-0.829,-0.83,-0.834,-0.841,-0.851,-0.862,-0.873,-0.884,-0.895,-0.903,-0.909,-0.911,-0.912,-0.909,-0.905,-0.899,-0.892,-0.884,-0.876,-0.868,-0.859,-0.849,-0.837,-0.824,-0.808,-0.789,-0.768,-0.745,-0.719,-0.693,-0.667,-0.643,-0.62,-0.601,-0.587,-0.576,-0.57,-0.568,-0.57,-0.574,-0.58,-0.586,-0.592,-0.598,-0.602,-0.605,-0.607,-0.608,-0.609,-0.61,-0.612,-0.615,-0.619,-0.624,-0.629,-0.633,-0.637,-0.639,-0.639,-0.636,-0.632,-0.625,-0.618,-0.61,-0.602,-0.596,-0.593,-0.593,-0.596,-0.604,-0.614,-0.628,-0.643,-0.659,-0.676,-0.691,-0.705,-0.718,-0.728,-0.737,-0.744,-0.751,-0.758,-0.766,-0.775,-0.785,-0.796,-0.808,-0.82,-0.831,-0.842,-0.85,-0.856,-0.859,-0.86,-0.859,-0.855,-0.851,-0.847,-0.844,-0.842,-0.841,-0.843,-0.847,-0.852,-0.858,-0.864,-0.87,-0.874,-0.877,-0.877,-0.876,-0.872,-0.868,-0.863,-0.859,-0.855,-0.852,-0.85,-0.85,-0.85,-0.851,-0.851,-0.849,-0.845,-0.837,-0.826,-0.812,-0.794,-0.774,-0.751,-0.728,-0.704,-0.682,-0.661,-0.641,-0.624,-0.608,-0.594,-0.581,-0.568,-0.554,-0.539,-0.523,-0.506,-0.487,-0.467,-0.446,-0.427,-0.407,-0.39,-0.374,-0.359,-0.346,-0.335,-0.323,-0.311,-0.298,-0.284,-0.268,-0.249,-0.229,-0.208,-0.187,-0.167,-0.148,-0.133,-0.121,-0.114,-0.112,-0.115,-0.122,-0.133,-0.148,-0.165,-0.185,-0.206,-0.229,-0.253,-0.279,-0.307,-0.336,-0.369,-0.404,-0.442,-0.483,-0.526,-0.57,-0.615,-0.659,-0.702,-0.742,-0.779,-0.812,-0.841,-0.866,-0.888,-0.907,-0.924,-0.941,-0.957,-0.973,-0.989,-1.006,-1.022,-1.038,-1.053,-1.065,-1.075,-1.081,-1.084,-1.085,-1.082,-1.078,-1.073,-1.068,-1.063,-1.06,-1.059,-1.06,-1.063,-1.067,-1.072,-1.077,-1.081,-1.084,-1.084,-1.083,-1.08,-1.075,-1.069,-1.063,-1.057,-1.053,-1.051,-1.051,-1.053,-1.056,-1.061,-1.065,-1.069,-1.072,-1.071,-1.068,-1.062,-1.051,-1.037,-1.019,-0.998,-0.974,-0.945,-0.913,-0.877,-0.835,-0.787,-0.731,-0.667,-0.593,-0.509,-0.415,-0.31,-0.195,-0.071,0.058,0.194,0.332,0.471,0.608,0.74,0.865,0.98,1.083,1.172,1.245,1.299,1.332,1.341,1.324,1.278,1.2,1.09,0.944,0.762,0.543,0.289,0.002,-0.315,-0.659,-1.024,-1.405,-1.793,-2.184,-2.569,-2.941,-3.294,-3.622,-3.92,-4.184,-4.409,-4.594,-4.736,-4.836,-4.891,-4.904,-4.875,-4.805,-4.698,-4.557,-4.386,-4.188,-3.969,-3.734,-3.488,-3.238,-2.988,-2.743,-2.509,-2.288,-2.085,-1.9,-1.736,-1.591,-1.467,-1.361,-1.273,-1.199,-1.139,-1.09,-1.051,-1.02,-0.996,-0.977,-0.963,-0.952,-0.943,-0.937,-0.93,-0.923,-0.915,-0.905,-0.891,-0.874,-0.853,-0.828,-0.8,-0.77,-0.739,-0.708,-0.679,-0.652,-0.629,-0.61,-0.595,-0.585,-0.579,-0.576,-0.575,-0.575,-0.576,-0.575,-0.573,-0.57,-0.564,-0.557,-0.548,-0.538,-0.528,-0.518,-0.508,-0.498,-0.488,-0.477,-0.465,-0.452,-0.436,-0.417,-0.396,-0.373,-0.347,-0.32,-0.292,-0.265,-0.24,-0.217,-0.197,-0.181,-0.168,-0.159,-0.152,-0.147,-0.144,-0.141,-0.137,-0.133,-0.127,-0.121,-0.115,-0.108,-0.102,-0.096,-0.093,-0.091,-0.092,-0.094,-0.098,-0.102,-0.106,-0.109,-0.111,-0.111,-0.109,-0.105,-0.099,-0.093,-0.086,-0.081,-0.077,-0.075,-0.075,-0.078,-0.084,-0.091,-0.1,-0.109,-0.118,-0.126,-0.133,-0.138,-0.142,-0.144,-0.147,-0.149,-0.152,-0.157,-0.163,-0.17,-0.179,-0.189,-0.199,-0.207,-0.214,-0.219,-0.22,-0.217,-0.211,-0.201,-0.189,-0.174,-0.159,-0.144,-0.13,-0.117,-0.107,-0.099,-0.093,-0.089,-0.086,-0.083,-0.081,-0.078,-0.073,-0.068,-0.063,-0.056,-0.051,-0.045,-0.041,-0.039,-0.038,-0.039,-0.041,-0.044,-0.047,-0.049,-0.05,-0.05,-0.047,-0.043,-0.037,-0.03,-0.023,-0.018,-0.015,-0.014,-0.018,-0.025,-0.037,-0.053,-0.073,-0.095,-0.12,-0.146,-0.173,-0.2,-0.228,-0.256,-0.284,-0.314,-0.345,-0.379,-0.416,-0.455,-0.498,-0.543,-0.591,-0.64,-0.689,-0.739,-0.788,-0.835,-0.881,-0.925,-0.968,-1.01,-1.052,-1.095,-1.139,-1.185,-1.234,-1.285,-1.337,-1.391,-1.446,-1.5,-1.554,-1.605,-1.655,-1.702,-1.747,-1.789,-1.83,-1.87,-1.909,-1.949,-1.989,-2.03,-2.071,-2.111,-2.151,-2.188,-2.223,-2.253,-2.279,-2.3,-2.316,-2.328,-2.335,-2.339,-2.34,-2.339,-2.338,-2.337,-2.337,-2.336,-2.336,-2.336,-2.334,-2.332,-2.327,-2.32,-2.312,-2.301,-2.288,-2.275,-2.262,-2.249,-2.238,-2.229,-2.222,-2.217,-2.215,-2.213,-2.213,-2.211,-2.209,-2.204,-2.197,-2.186,-2.174,-2.158,-2.142,-2.124,-2.106,-2.089,-2.074,-2.061,-2.05,-2.041,-2.033,-2.027,-2.022,-2.017,-2.011,-2.006,-1.999,-1.993,-1.988,-1.984,-1.981,-1.982,-1.985,-1.991,-2.001,-2.013,-2.028,-2.043,-2.059,-2.074,-2.088,-2.1,-2.108,-2.115,-2.118,-2.12,-2.12,-2.12,-2.12,-2.121,-2.123,-2.126,-2.13,-2.134,-2.138,-2.142,-2.144,-2.144,-2.142,-2.139,-2.133,-2.125,-2.117,-2.109,-2.102,-2.096,-2.092,-2.09,-2.09,-2.092,-2.094,-2.096,-2.097,-2.096,-2.093,-2.088,-2.079,-2.068,-2.056,-2.041,-2.027,-2.012,-1.998,-1.985,-1.974,-1.964,-1.954,-1.945,-1.936,-1.925,-1.912,-1.897,-1.88,-1.86,-1.839,-1.816,-1.793,-1.771,-1.749,-1.729,-1.712,-1.696,-1.682,-1.669,-1.657,-1.645,-1.633,-1.619,-1.605,-1.589,-1.572,-1.554,-1.537,-1.522,-1.508,-1.498,-1.49,-1.486,-1.484,-1.485,-1.488,-1.491,-1.494,-1.496,-1.495,-1.492,-1.487,-1.478,-1.468,-1.455,-1.443,-1.43,-1.418,-1.407,-1.398,-1.391,-1.385,-1.379,-1.374,-1.367,-1.36,-1.351,-1.339,-1.327,-1.312,-1.298,-1.283,-1.268,-1.255,-1.244,-1.235,-1.228,-1.223,-1.219,-1.215,-1.211,-1.206,-1.199,-1.191,-1.181,-1.17,-1.158,-1.146,-1.135,-1.127,-1.121,-1.12,-1.122,-1.128,-1.138,-1.151,-1.165,-1.181,-1.196,-1.211,-1.224,-1.236,-1.245,-1.253,-1.26,-1.267,-1.274,-1.281,-1.29,-1.3,-1.312,-1.324,-1.336,-1.348,-1.358,-1.367,-1.373,-1.376,-1.377,-1.376,-1.372,-1.368,-1.363,-1.358,-1.354,-1.351,-1.349,-1.349,-1.348,-1.348,-1.348,-1.346,-1.343,-1.338,-1.332,-1.324,-1.316,-1.308,-1.302,-1.297,-1.294,-1.295,-1.298,-1.305,-1.313,-1.323,-1.334,-1.345,-1.354,-1.361,-1.366,-1.369,-1.369,-1.368,-1.365,-1.362,-1.359,-1.356,-1.356,-1.357,-1.359,-1.362,-1.366,-1.37,-1.374,-1.376,-1.378,-1.377,-1.376,-1.374,-1.372,-1.371,-1.372,-1.375,-1.38,-1.389,-1.399,-1.412,-1.427,-1.441,-1.455,-1.468,-1.478,-1.485,-1.488,-1.489,-1.487,-1.484,-1.48,-1.476,-1.472,-1.471,-1.472,-1.475,-1.481,-1.488,-1.497,-1.506,-1.515,-1.523,-1.53,-1.536,-1.54,-1.543,-1.546,-1.549,-1.551,-1.555,-1.559,-1.563,-1.568,-1.573,-1.576,-1.577,-1.576,-1.571,-1.563,-1.55,-1.535,-1.516,-1.495,-1.473,-1.451,-1.43,-1.41,-1.393,-1.378,-1.365,-1.355,-1.345,-1.336,-1.327,-1.317,-1.306,-1.293,-1.279,-1.264,-1.249,-1.235,-1.221,-1.21,-1.201,-1.195,-1.191,-1.19,-1.19,-1.192,-1.194,-1.196,-1.197,-1.197,-1.196,-1.194,-1.191,-1.188,-1.186,-1.186,-1.188,-1.192,-1.198,-1.207,-1.217,-1.228,-1.24,-1.251,-1.26,-1.269,-1.275,-1.279,-1.282,-1.284,-1.286,-1.289,-1.293,-1.298,-1.307,-1.317,-1.329,-1.343,-1.357,-1.371,-1.385,-1.397,-1.407,-1.415,-1.421,-1.425,-1.429,-1.433,-1.437,-1.443,-1.45,-1.46,-1.471,-1.484,-1.498,-1.511,-1.524,-1.535,-1.544,-1.55,-1.553,-1.553,-1.551,-1.545,-1.539,-1.531,-1.522,-1.513,-1.503,-1.492,-1.48,-1.466,-1.45,-1.431,-1.409,-1.383,-1.354,-1.321,-1.287,-1.251,-1.214,-1.179,-1.145,-1.114,-1.086,-1.062,-1.041,-1.024,-1.01,-0.998,-0.988,-0.979,-0.971,-0.965,-0.96,-0.958,-0.957,-0.961,-0.968,-0.98,-0.997,-1.018,-1.044,-1.074,-1.106,-1.141,-1.175,-1.209,-1.242,-1.272,-1.299,-1.324,-1.345,-1.364,-1.381,-1.397,-1.411,-1.425,-1.437,-1.449,-1.459,-1.467,-1.473,-1.476,-1.476,-1.472,-1.464,-1.454,-1.441,-1.427,-1.412,-1.398,-1.385,-1.374,-1.366,-1.361,-1.359,-1.358,-1.359,-1.361,-1.362,-1.363,-1.364,-1.363,-1.361,-1.358,-1.356,-1.354,-1.354,-1.356,-1.36,-1.367,-1.377,-1.388,-1.401,-1.414,-1.426,-1.437,-1.446,-1.453,-1.457,-1.458,-1.457,-1.454,-1.449,-1.443,-1.436,-1.428,-1.419,-1.407,-1.393,-1.374,-1.35,-1.319,-1.281,-1.235,-1.181,-1.118,-1.048,-0.97,-0.886,-0.798,-0.706,-0.612,-0.518,-0.424,-0.332,-0.243,-0.158,-0.079,-0.006,0.057,0.11,0.15,0.174,0.179,0.162,0.12,0.052,-0.045,-0.173,-0.332,-0.522,-0.741,-0.987,-1.256,-1.546,-1.851,-2.167,-2.489,-2.811,-3.129,-3.437,-3.732,-4.007,-4.26,-4.487,-4.683,-4.846,-4.974,-5.063,-5.114,-5.125,-5.096,-5.029,-4.926,-4.789,-4.622,-4.429,-4.216,-3.987,-3.748,-3.504,-3.259,-3.019,-2.786,-2.563,-2.353,-2.157,-1.977,-1.812,-1.663,-1.529,-1.411,-1.307,-1.218,-1.143,-1.08,-1.031,-0.993,-0.965,-0.946,-0.934,-0.928,-0.925,-0.924,-0.924,-0.921,-0.917,-0.909,-0.898,-0.884,-0.868,-0.85,-0.833,-0.817,-0.802,-0.791,-0.784,-0.78,-0.779,-0.782,-0.788,-0.796,-0.805,-0.814,-0.825,-0.836,-0.848,-0.86,-0.874,-0.89,-0.907,-0.927,-0.949,-0.973,-0.997,-1.022,-1.045,-1.066,-1.083,-1.096,-1.104,-1.107,-1.105,-1.098,-1.088,-1.076,-1.061,-1.046,-1.031,-1.017,-1.003,-0.99,-0.979,-0.967,-0.955,-0.942,-0.928,-0.913,-0.897,-0.88,-0.863,-0.847,-0.831,-0.818,-0.807,-0.799,-0.794,-0.792,-0.792,-0.794,-0.796,-0.798,-0.8,-0.8,-0.798,-0.795,-0.791,-0.785,-0.78,-0.775,-0.771,-0.768,-0.767,-0.768,-0.769,-0.771,-0.772,-0.772,-0.77,-0.765,-0.757,-0.745,-0.73,-0.712,-0.693,-0.672,-0.652,-0.632,-0.613,-0.596,-0.581,-0.567,-0.553,-0.54,-0.527,-0.511,-0.494,-0.475,-0.454,-0.431,-0.407,-0.383,-0.359,-0.337,-0.316,-0.298,-0.282,-0.269,-0.258,-0.248,-0.238,-0.228,-0.217,-0.204,-0.19,-0.173,-0.156,-0.138,-0.119,-0.102,-0.087,-0.074,-0.064,-0.057,-0.052,-0.05,-0.049,-0.049,-0.049,-0.049,-0.047,-0.045,-0.042,-0.039,-0.037,-0.036,-0.037,-0.042,-0.05,-0.063,-0.079,-0.099,-0.123,-0.149,-0.178,-0.207,-0.237,-0.267,-0.297,-0.328,-0.36,-0.394,-0.429,-0.468,-0.51,-0.556,-0.606,-0.66,-0.716,-0.775,-0.836,-0.896,-0.957,-1.017,-1.075,-1.132,-1.189,-1.244,-1.299,-1.355,-1.412,-1.471,-1.532,-1.594,-1.658,-1.722,-1.787,-1.85,-1.912,-1.971,-2.028,-2.081,-2.131,-2.178,-2.223,-2.267,-2.31,-2.353,-2.396,-2.44,-2.484,-2.528,-2.571,-2.612,-2.651,-2.687,-2.72,-2.748,-2.771,-2.791,-2.808,-2.822,-2.834,-2.846,-2.857,-2.869,-2.881,-2.894,-2.907,-2.92,-2.931,-2.94,-2.947,-2.951,-2.951,-2.947,-2.941,-2.932,-2.921,-2.909,-2.896,-2.884,-2.873,-2.862,-2.852,-2.842,-2.831,-2.82,-2.807,-2.792,-2.775,-2.755,-2.733,-2.709,-2.684,-2.658,-2.633,-2.61,-2.588,-2.568,-2.55,-2.534,-2.519,-2.504,-2.49,-2.474,-2.458,-2.44,-2.42,-2.399,-2.378,-2.357,-2.338,-2.319,-2.304,-2.291,-2.281,-2.274,-2.269,-2.266,-2.264,-2.263,-2.261,-2.257,-2.253,-2.248,-2.241,-2.234,-2.228,-2.223,-2.219,-2.217,-2.218,-2.22,-2.225,-2.231,-2.237,-2.242,-2.246,-2.248,-2.248,-2.245,-2.24,-2.233,-2.225,-2.218,-2.211,-2.206,-2.203,-2.204,-2.206,-2.212,-2.219,-2.227,-2.235,-2.242,-2.248,-2.252,-2.253,-2.253,-2.25,-2.247,-2.242,-2.238,-2.234,-2.231,-2.228,-2.227,-2.225,-2.223,-2.22,-2.215,-2.208,-2.199,-2.186,-2.171,-2.154,-2.135,-2.116,-2.097,-2.079,-2.064,-2.05,-2.039,-2.031,-2.024,-2.018,-2.013,-2.008,-2.002,-1.995,-1.987,-1.977,-1.967,-1.957,-1.947,-1.938,-1.931,-1.926,-1.922,-1.921,-1.921,-1.922,-1.923,-1.922,-1.92,-1.915,-1.907,-1.896,-1.882,-1.867,-1.85,-1.832,-1.815,-1.799,-1.784,-1.772,-1.762,-1.753,-1.745,-1.738,-1.731,-1.723,-1.714,-1.704,-1.692,-1.68,-1.667,-1.654,-1.642,-1.632,-1.623,-1.618,-1.614,-1.612,-1.612,-1.612,-1.612,-1.61,-1.607,-1.602,-1.594,-1.585,-1.574,-1.562,-1.55,-1.538,-1.529,-1.521,-1.516,-1.513,-1.512,-1.513,-1.515,-1.517,-1.517,-1.517,-1.514,-1.51,-1.504,-1.497,-1.488,-1.48,-1.473,-1.467,-1.462,-1.459,-1.457,-1.456,-1.456,-1.455,-1.453,-1.45,-1.444,-1.436,-1.426,-1.414,-1.401,-1.388,-1.376,-1.365,-1.356,-1.35,-1.347,-1.347,-1.349,-1.352,-1.357,-1.361,-1.365,-1.368,-1.37,-1.372,-1.372,-1.373,-1.375,-1.377,-1.382,-1.389,-1.398,-1.409,-1.422,-1.436,-1.449,-1.462,-1.472,-1.481,-1.487,-1.49,-1.491,-1.49,-1.488,-1.486,-1.486,-1.487,-1.491,-1.497,-1.507,-1.519,-1.534,-1.55,-1.566,-1.583,-1.6,-1.615,-1.63,-1.644,-1.657,-1.671,-1.686,-1.701,-1.719,-1.738,-1.759,-1.781,-1.803,-1.826,-1.847,-1.866,-1.882,-1.895,-1.905,-1.911,-1.915,-1.915,-1.914,-1.911,-1.908,-1.905,-1.902,-1.899,-1.895,-1.891,-1.886,-1.879,-1.869,-1.856,-1.841,-1.823,-1.803,-1.782,-1.76,-1.739,-1.719,-1.702,-1.686,-1.674,-1.663,-1.654,-1.646,-1.638,-1.629,-1.617,-1.602,-1.584,-1.563,-1.538,-1.51,-1.479,-1.448,-1.415,-1.382,-1.35,-1.318,-1.288,-1.258,-1.229,-1.2,-1.172,-1.143,-1.115,-1.087,-1.061,-1.036,-1.014,-0.995,-0.981,-0.972,-0.968,-0.97,-0.978,-0.99,-1.006,-1.025,-1.046,-1.067,-1.089,-1.11,-1.129,-1.148,-1.165,-1.183,-1.201,-1.219,-1.24,-1.262,-1.286,-1.312,-1.34,-1.369,-1.398,-1.426,-1.454,-1.48,-1.503,-1.525,-1.546,-1.565,-1.583,-1.601,-1.619,-1.637,-1.656,-1.676,-1.695,-1.713,-1.73,-1.745,-1.757,-1.765,-1.769,-1.769,-1.766,-1.761,-1.754,-1.747,-1.739,-1.734,-1.731,-1.73,-1.733,-1.738,-1.746,-1.756,-1.766,-1.776,-1.786,-1.795,-1.802,-1.808,-1.813,-1.817,-1.821,-1.824,-1.828,-1.832,-1.837,-1.84,-1.843,-1.844,-1.842,-1.836,-1.826,-1.811,-1.79,-1.765,-1.734,-1.699,-1.66,-1.618,-1.573,-1.525,-1.476,-1.424,-1.369,-1.31,-1.247,-1.177,-1.102,-1.019,-0.929,-0.832,-0.728,-0.618,-0.504,-0.387,-0.269,-0.154,-0.042,0.064,0.161,0.249,0.324,0.385,0.429,0.455,0.46,0.443,0.401,0.332,0.235,0.109,-0.047,-0.235,-0.452,-0.698,-0.969,-1.262,-1.573,-1.896,-2.226,-2.557,-2.882,-3.195,-3.492,-3.766,-4.014,-4.233,-4.418,-4.57,-4.685,-4.765,-4.809,-4.817,-4.791,-4.733,-4.644,-4.527,-4.384,-4.219,-4.036,-3.838,-3.631,-3.417,-3.201,-2.989,-2.782,-2.585,-2.401,-2.231,-2.077,-1.939,-1.817,-1.711,-1.619,-1.541,-1.474,-1.419,-1.373,-1.335,-1.305,-1.282,-1.265,-1.254,-1.248,-1.247,-1.25,-1.255,-1.263,-1.27,-1.278,-1.284,-1.287,-1.288,-1.286,-1.282,-1.275,-1.267,-1.258,-1.25,-1.242,-1.237,-1.234,-1.234,-1.236,-1.239,-1.244,-1.249,-1.252,-1.255,-1.255,-1.253,-1.249,-1.242,-1.233,-1.224,-1.213,-1.203,-1.192,-1.182,-1.171,-1.159,-1.147,-1.132,-1.115,-1.094,-1.069,-1.041,-1.01,-0.976,-0.939,-0.902,-0.865,-0.83,-0.796,-0.766,-0.738,-0.714,-0.693,-0.674,-0.656,-0.639,-0.622,-0.604,-0.585,-0.565,-0.544,-0.523,-0.502,-0.483,-0.465,-0.45,-0.437,-0.427,-0.42,-0.416,-0.413,-0.412,-0.411,-0.41,-0.409,-0.408,-0.407,-0.407,-0.408,-0.41,-0.415,-0.423,-0.433,-0.447,-0.464,-0.483,-0.503,-0.523,-0.542,-0.559,-0.573,-0.584,-0.592,-0.596,-0.598,-0.598,-0.597,-0.595,-0.594,-0.593,-0.594,-0.596,-0.599,-0.602,-0.606,-0.608,-0.61,-0.61,-0.608,-0.605,-0.601,-0.597,-0.593,-0.59,-0.589,-0.59,-0.595,-0.601,-0.61,-0.621,-0.632,-0.643,-0.654,-0.662,-0.669,-0.673,-0.675,-0.676,-0.675,-0.674,-0.674,-0.674,-0.677,-0.682,-0.69,-0.699,-0.71,-0.721,-0.733,-0.744,-0.753,-0.761,-0.766,-0.77,-0.773,-0.775,-0.777,-0.78,-0.784,-0.79,-0.799,-0.809,-0.821,-0.834,-0.848,-0.863,-0.876,-0.89,-0.902,-0.914,-0.927,-0.939,-0.954,-0.971,-0.991,-1.015,-1.043,-1.075,-1.111,-1.15,-1.191,-1.234,-1.278,-1.321,-1.364,-1.406,-1.447,-1.488,-1.53,-1.571,-1.615,-1.66,-1.707,-1.757,-1.809,-1.862,-1.916,-1.97,-2.023,-2.074,-2.122,-2.167,-2.209,-2.247,-2.282,-2.316,-2.347,-2.377,-2.407,-2.436,-2.466,-2.494,-2.522,-2.548,-2.572,-2.592,-2.608,-2.62,-2.628,-2.631,-2.63,-2.626,-2.62,-2.612,-2.603,-2.595,-2.587,-2.58,-2.574,-2.568,-2.562,-2.556,-2.548,-2.539,-2.527,-2.514,-2.5,-2.484,-2.468,-2.452,-2.438,-2.426,-2.417,-2.41,-2.406,-2.403,-2.403,-2.403,-2.402,-2.401,-2.397,-2.392,-2.385,-2.376,-2.366,-2.356,-2.346,-2.338,-2.331,-2.328,-2.328,-2.33,-2.335,-2.342,-2.349,-2.357,-2.365,-2.372,-2.377,-2.382,-2.385,-2.388,-2.391,-2.394,-2.399,-2.406,-2.415,-2.426,-2.439,-2.453,-2.467,-2.481,-2.495,-2.506,-2.516,-2.524,-2.531,-2.536,-2.54,-2.545,-2.551,-2.558,-2.567,-2.579,-2.592,-2.606,-2.622,-2.636,-2.65,-2.662,-2.671,-2.676,-2.679,-2.679,-2.676,-2.672,-2.667,-2.662,-2.658,-2.655,-2.654,-2.653,-2.654,-2.655,-2.656,-2.656,-2.654,-2.649,-2.642,-2.633,-2.621,-2.607,-2.592,-2.577,-2.561,-2.546,-2.531,-2.517,-2.503,-2.488,-2.472,-2.454,-2.433,-2.409,-2.381,-2.349,-2.314,-2.275,-2.235,-2.194,-2.152,-2.111,-2.072,-2.035,-1.999,-1.966,-1.935,-1.904,-1.874,-1.844,-1.813,-1.782,-1.749,-1.716,-1.683,-1.65,-1.618,-1.587,-1.56,-1.535,-1.512,-1.493,-1.475,-1.46,-1.445,-1.431,-1.416,-1.401,-1.385,-1.369,-1.353,-1.337,-1.323,-1.312,-1.304,-1.3,-1.299,-1.303,-1.311,-1.321,-1.334,-1.348,-1.363,-1.377,-1.391,-1.403,-1.414,-1.424,-1.434,-1.443,-1.453,-1.465,-1.477,-1.491,-1.506,-1.522,-1.538,-1.554,-1.568,-1.58,-1.59,-1.597,-1.602,-1.604,-1.605,-1.604,-1.605,-1.606,-1.609,-1.614,-1.622,-1.632,-1.645,-1.659,-1.674,-1.689,-1.704,-1.717,-1.729,-1.74,-1.75,-1.759,-1.767,-1.776,-1.786,-1.796,-1.808,-1.821,-1.833,-1.845,-1.856,-1.864,-1.869,-1.87,-1.866,-1.857,-1.845,-1.828,-1.808,-1.787,-1.764,-1.742,-1.72,-1.7,-1.681,-1.664,-1.648,-1.633,-1.617,-1.601,-1.585,-1.566,-1.547,-1.526,-1.504,-1.483,-1.462,-1.442,-1.424,-1.408,-1.395,-1.383,-1.373,-1.364,-1.355,-1.346,-1.335,-1.322,-1.308,-1.292,-1.276,-1.259,-1.242,-1.227,-1.215,-1.206,-1.202,-1.201,-1.205,-1.213,-1.223,-1.236,-1.251,-1.267,-1.284,-1.3,-1.317,-1.335,-1.353,-1.373,-1.394,-1.418,-1.444,-1.473,-1.503,-1.534,-1.566,-1.597,-1.627,-1.653,-1.677,-1.697,-1.713,-1.725,-1.735,-1.743,-1.75,-1.757,-1.764,-1.772,-1.782,-1.793,-1.806,-1.819,-1.832,-1.844,-1.854,-1.863,-1.869,-1.873,-1.874,-1.874,-1.872,-1.87,-1.867,-1.865,-1.863,-1.861,-1.859,-1.857,-1.853,-1.847,-1.839,-1.827,-1.811,-1.791,-1.768,-1.741,-1.712,-1.682,-1.651,-1.619,-1.588,-1.557,-1.527,-1.498,-1.469,-1.44,-1.41,-1.38,-1.348,-1.315,-1.282,-1.25,-1.218,-1.189,-1.162,-1.14,-1.122,-1.11,-1.102,-1.099,-1.101,-1.105,-1.112,-1.119,-1.127,-1.134,-1.141,-1.146,-1.151,-1.155,-1.16,-1.166,-1.174,-1.185,-1.2,-1.218,-1.238,-1.262,-1.288,-1.315,-1.343,-1.37,-1.397,-1.423,-1.448,-1.472,-1.495,-1.519,-1.543,-1.568,-1.594,-1.621,-1.649,-1.677,-1.704,-1.729,-1.752,-1.772,-1.788,-1.8,-1.808,-1.813,-1.815,-1.814,-1.813,-1.812,-1.812,-1.813,-1.815,-1.819,-1.823,-1.829,-1.833,-1.837,-1.84,-1.84,-1.837,-1.833,-1.826,-1.819,-1.811,-1.804,-1.798,-1.793,-1.791,-1.792,-1.794,-1.798,-1.802,-1.807,-1.81,-1.81,-1.809,-1.803,-1.795,-1.782,-1.767,-1.747,-1.725,-1.699,-1.669,-1.636,-1.597,-1.553,-1.502,-1.443,-1.375,-1.296,-1.206,-1.105,-0.993,-0.871,-0.741,-0.603,-0.46,-0.313,-0.167,-0.022,0.118,0.253,0.379,0.494,0.596,0.683,0.751,0.799,0.824,0.823,0.793,0.731,0.636,0.506,0.339,0.136,-0.102,-0.374,-0.677,-1.006,-1.355,-1.72,-2.094,-2.47,-2.841,-3.201,-3.545,-3.865,-4.158,-4.42,-4.646,-4.835,-4.983,-5.09,-5.156,-5.179,-5.161,-5.103,-5.008,-4.877,-4.714,-4.525,-4.312,-4.082,-3.84,-3.591,-3.342,-3.096,-2.86,-2.635,-2.427,-2.237,-2.065,-1.914,-1.783,-1.671,-1.577,-1.5,-1.439,-1.392,-1.358,-1.336,-1.324,-1.321,-1.326,-1.338,-1.355,-1.376,-1.399,-1.422,-1.443,-1.461,-1.475,-1.484,-1.486,-1.482,-1.473,-1.458,-1.438,-1.416,-1.391,-1.366,-1.341,-1.316,-1.293,-1.271,-1.25,-1.23,-1.21,-1.189,-1.167,-1.145,-1.121,-1.096,-1.071,-1.046,-1.022,-0.999,-0.978,-0.96,-0.944,-0.931,-0.919,-0.908,-0.897,-0.885,-0.872,-0.858,-0.841,-0.822,-0.802,-0.78,-0.758,-0.736,-0.714,-0.695,-0.676,-0.66,-0.645,-0.631,-0.617,-0.603,-0.588,-0.572,-0.554,-0.534,-0.514,-0.492,-0.471,-0.45,-0.432,-0.416,-0.403,-0.395,-0.389,-0.387,-0.387,-0.39,-0.393,-0.397,-0.4,-0.402,-0.403,-0.403,-0.402,-0.402,-0.402,-0.404,-0.408,-0.414,-0.423,-0.434,-0.446,-0.46,-0.473,-0.486,-0.497,-0.506,-0.512,-0.517,-0.519,-0.519,-0.518,-0.518,-0.517,-0.518,-0.52,-0.523,-0.528,-0.533,-0.537,-0.541,-0.543,-0.543,-0.541,-0.535,-0.528,-0.518,-0.508,-0.497,-0.487,-0.478,-0.471,-0.467,-0.465,-0.466,-0.468,-0.472,-0.475,-0.479,-0.482,-0.483,-0.484,-0.483,-0.482,-0.481,-0.48,-0.48,-0.482,-0.486,-0.491,-0.498,-0.506,-0.514,-0.521,-0.526,-0.53,-0.531,-0.53,-0.525,-0.519,-0.512,-0.504,-0.497,-0.491,-0.487,-0.486,-0.487,-0.491,-0.498,-0.506,-0.516,-0.527,-0.538,-0.55,-0.562,-0.575,-0.59,-0.608,-0.629,-0.654,-0.684,-0.719,-0.759,-0.804,-0.853,-0.905,-0.96,-1.016,-1.072,-1.128,-1.182,-1.236,-1.287,-1.338,-1.388,-1.438,-1.489,-1.541,-1.594,-1.648,-1.704,-1.759,-1.815,-1.869,-1.921,-1.971,-2.017,-2.059,-2.098,-2.133,-2.166,-2.197,-2.226,-2.255,-2.284,-2.314,-2.343,-2.373,-2.402,-2.43,-2.455,-2.478,-2.497,-2.513,-2.524,-2.531,-2.534,-2.534,-2.532,-2.528,-2.524,-2.518,-2.513,-2.508,-2.502,-2.496,-2.488,-2.479,-2.467,-2.453,-2.436,-2.417,-2.396,-2.374,-2.351,-2.329,-2.309,-2.291,-2.276,-2.263,-2.253,-2.244,-2.237,-2.231,-2.224,-2.216,-2.206,-2.193,-2.179,-2.163,-2.146,-2.128,-2.111,-2.094,-2.08,-2.067,-2.057,-2.049,-2.043,-2.038,-2.033,-2.027,-2.021,-2.013,-2.003,-1.991,-1.978,-1.964,-1.95,-1.936,-1.924,-1.914,-1.906,-1.899,-1.895,-1.892,-1.889,-1.886,-1.883,-1.878,-1.872,-1.865,-1.857,-1.848,-1.84,-1.833,-1.828,-1.825,-1.826,-1.83,-1.838,-1.848,-1.86,-1.873,-1.887,-1.901,-1.914,-1.926,-1.937,-1.947,-1.957,-1.967,-1.978,-1.991,-2.005,-2.021,-2.039,-2.058,-2.078,-2.098,-2.116,-2.133,-2.147,-2.157,-2.164,-2.167,-2.168,-2.165,-2.161,-2.155,-2.149,-2.142,-2.135,-2.127,-2.119,-2.109,-2.098,-2.084,-2.066,-2.046,-2.021,-1.993,-1.963,-1.93,-1.896,-1.862,-1.829,-1.798,-1.769,-1.743,-1.719,-1.697,-1.677,-1.658,-1.638,-1.617,-1.595,-1.57,-1.544,-1.516,-1.487,-1.458,-1.428,-1.4,-1.373,-1.348,-1.325,-1.304,-1.285,-1.266,-1.248,-1.23,-1.211,-1.191,-1.17,-1.149,-1.127,-1.105,-1.085,-1.068,-1.053,-1.041,-1.033,-1.029,-1.029,-1.031,-1.035,-1.04,-1.046,-1.052,-1.058,-1.062,-1.067,-1.071,-1.075,-1.08,-1.087,-1.095,-1.105,-1.117,-1.13,-1.145,-1.16,-1.174,-1.186,-1.197,-1.205,-1.211,-1.214,-1.216,-1.216,-1.216,-1.216,-1.218,-1.222,-1.228,-1.237,-1.248,-1.261,-1.275,-1.289,-1.303,-1.316,-1.328,-1.337,-1.345,-1.351,-1.356,-1.361,-1.366,-1.373,-1.38,-1.39,-1.401,-1.413,-1.426,-1.439,-1.451,-1.462,-1.472,-1.479,-1.483,-1.486,-1.487,-1.487,-1.487,-1.487,-1.487,-1.489,-1.491,-1.495,-1.498,-1.501,-1.503,-1.502,-1.499,-1.493,-1.484,-1.471,-1.457,-1.44,-1.422,-1.404,-1.387,-1.371,-1.357,-1.345,-1.335,-1.326,-1.318,-1.31,-1.301,-1.292,-1.282,-1.271,-1.259,-1.248,-1.237,-1.227,-1.22,-1.216,-1.216,-1.219,-1.226,-1.236,-1.247,-1.261,-1.274,-1.286,-1.297,-1.305,-1.311,-1.315,-1.317,-1.318,-1.319,-1.32,-1.322,-1.326,-1.333,-1.341,-1.352,-1.364,-1.377,-1.39,-1.403,-1.414,-1.425,-1.434,-1.441,-1.448,-1.455,-1.461,-1.469,-1.477,-1.486,-1.496,-1.506,-1.516,-1.526,-1.533,-1.538,-1.54,-1.538,-1.533,-1.526,-1.516,-1.505,-1.493,-1.482,-1.472,-1.464,-1.459,-1.456,-1.455,-1.455,-1.456,-1.457,-1.457,-1.456,-1.452,-1.446,-1.438,-1.429,-1.418,-1.406,-1.394,-1.383,-1.373,-1.364,-1.355,-1.346,-1.337,-1.327,-1.314,-1.299,-1.281,-1.259,-1.234,-1.206,-1.175,-1.144,-1.111,-1.078,-1.046,-1.015,-0.985,-0.955,-0.927,-0.899,-0.87,-0.841,-0.811,-0.78,-0.748,-0.716,-0.686,-0.657,-0.631,-0.609,-0.592,-0.58,-0.574,-0.573,-0.578,-0.587,-0.6,-0.616,-0.633,-0.651,-0.669,-0.687,-0.706,-0.725,-0.744,-0.766,-0.79,-0.816,-0.846,-0.879,-0.914,-0.953,-0.993,-1.035,-1.076,-1.118,-1.158,-1.197,-1.235,-1.271,-1.307,-1.343,-1.38,-1.418,-1.458,-1.499,-1.542,-1.585,-1.629,-1.671,-1.712,-1.749,-1.783,-1.811,-1.835,-1.853,-1.867,-1.876,-1.882,-1.885,-1.886,-1.886,-1.884,-1.882,-1.879,-1.875,-1.869,-1.862,-1.852,-1.839,-1.824,-1.807,-1.788,-1.768,-1.748,-1.729,-1.711,-1.696,-1.683,-1.673,-1.665,-1.658,-1.653,-1.648,-1.641,-1.633,-1.622,-1.609,-1.592,-1.573,-1.551,-1.527,-1.502,-1.475,-1.447,-1.417,-1.386,-1.351,-1.312,-1.267,-1.216,-1.156,-1.086,-1.006,-0.914,-0.811,-0.697,-0.573,-0.44,-0.298,-0.151,0,0.155,0.311,0.467,0.62,0.769,0.911,1.045,1.167,1.275,1.364,1.432,1.474,1.486,1.466,1.409,1.314,1.179,1.003,0.787,0.533,0.243,-0.078,-0.427,-0.798,-1.184,-1.581,-1.981,-2.378,-2.765,-3.137,-3.487,-3.811,-4.103,-4.359,-4.575,-4.749,-4.877,-4.959,-4.995,-4.984,-4.928,-4.832,-4.697,-4.529,-4.333,-4.115,-3.882,-3.639,-3.393,-3.148,-2.91,-2.683,-2.471,-2.275,-2.097,-1.939,-1.8,-1.68,-1.58,-1.498,-1.433,-1.385,-1.352,-1.333,-1.327,-1.332,-1.346,-1.367,-1.393,-1.421,-1.45,-1.477,-1.5,-1.518,-1.529,-1.532,-1.528,-1.517,-1.5,-1.477,-1.451,-1.422,-1.391,-1.36,-1.33,-1.3,-1.27,-1.242,-1.213,-1.185,-1.157,-1.128,-1.098,-1.069,-1.04,-1.013,-0.987,-0.964,-0.944,-0.928,-0.915,-0.905,-0.899,-0.894,-0.891,-0.887,-0.882,-0.876,-0.866,-0.854,-0.839,-0.822,-0.803,-0.782,-0.76,-0.739,-0.717,-0.696,-0.675,-0.654,-0.632,-0.609,-0.585,-0.558,-0.529,-0.498,-0.465,-0.431,-0.396,-0.363,-0.331,-0.302,-0.277,-0.255,-0.237,-0.223,-0.213,-0.204,-0.198,-0.192,-0.186,-0.179,-0.172,-0.164,-0.155,-0.147,-0.139,-0.133,-0.128,-0.126,-0.126,-0.128,-0.132,-0.137,-0.143,-0.147,-0.151,-0.153,-0.152,-0.15,-0.146,-0.14,-0.135,-0.131,-0.128,-0.128,-0.131,-0.138,-0.148,-0.16,-0.176,-0.192,-0.21,-0.227,-0.244,-0.259,-0.272,-0.285,-0.296,-0.306,-0.317,-0.328,-0.339,-0.351,-0.364,-0.377,-0.39,-0.402,-0.412,-0.42,-0.425,-0.427,-0.426,-0.422,-0.416,-0.409,-0.401,-0.394,-0.389,-0.385,-0.384,-0.385,-0.388,-0.392,-0.397,-0.401,-0.405,-0.407,-0.407,-0.405,-0.401,-0.396,-0.39,-0.384,-0.379,-0.375,-0.373,-0.373,-0.375,-0.378,-0.382,-0.386,-0.39,-0.393,-0.395,-0.395,-0.394,-0.393,-0.392,-0.392,-0.394,-0.399,-0.408,-0.422,-0.439,-0.46,-0.486,-0.514,-0.544,-0.577,-0.61,-0.643,-0.677,-0.71,-0.745,-0.781,-0.818,-0.857,-0.899,-0.944,-0.992,-1.042,-1.095,-1.149,-1.203,-1.257,-1.31,-1.361,-1.409,-1.455,-1.499,-1.541,-1.581,-1.621,-1.661,-1.701,-1.741,-1.782,-1.823,-1.864,-1.904,-1.942,-1.976,-2.007,-2.034,-2.056,-2.074,-2.088,-2.099,-2.107,-2.114,-2.121,-2.127,-2.135,-2.143,-2.152,-2.162,-2.172,-2.18,-2.188,-2.193,-2.196,-2.197,-2.195,-2.192,-2.188,-2.183,-2.179,-2.177,-2.176,-2.177,-2.18,-2.185,-2.19,-2.195,-2.199,-2.202,-2.203,-2.201,-2.196,-2.189,-2.18,-2.17,-2.16,-2.15,-2.141,-2.134,-2.128,-2.125,-2.122,-2.12,-2.118,-2.115,-2.11,-2.104,-2.095,-2.084,-2.071,-2.058,-2.043,-2.029,-2.016,-2.004,-1.994,-1.986,-1.98,-1.975,-1.97,-1.965,-1.958,-1.951,-1.941,-1.93,-1.917,-1.903,-1.888,-1.875,-1.862,-1.853,-1.846,-1.843,-1.842,-1.845,-1.851,-1.858,-1.866,-1.873,-1.881,-1.887,-1.892,-1.896,-1.899,-1.902,-1.905,-1.909,-1.914,-1.92,-1.928,-1.936,-1.946,-1.955,-1.962,-1.968,-1.97,-1.97,-1.966,-1.958,-1.948,-1.934,-1.92,-1.904,-1.889,-1.874,-1.86,-1.848,-1.837,-1.827,-1.816,-1.806,-1.794,-1.78,-1.765,-1.748,-1.729,-1.708,-1.687,-1.666,-1.645,-1.625,-1.606,-1.589,-1.573,-1.557,-1.541,-1.524,-1.506,-1.485,-1.461,-1.434,-1.404,-1.372,-1.338,-1.305,-1.272,-1.241,-1.214,-1.19,-1.17,-1.154,-1.142,-1.133,-1.127,-1.121,-1.116,-1.11,-1.103,-1.096,-1.086,-1.076,-1.066,-1.055,-1.045,-1.036,-1.028,-1.021,-1.016,-1.011,-1.006,-1.001,-0.995,-0.987,-0.978,-0.968,-0.957,-0.945,-0.934,-0.925,-0.917,-0.913,-0.911,-0.913,-0.919,-0.927,-0.937,-0.949,-0.96,-0.972,-0.981,-0.99,-0.996,-1.001,-1.004,-1.007,-1.01,-1.014,-1.019,-1.026,-1.036,-1.047,-1.059,-1.072,-1.086,-1.098,-1.109,-1.118,-1.126,-1.131,-1.135,-1.138,-1.141,-1.145,-1.15,-1.157,-1.166,-1.176,-1.189,-1.202,-1.216,-1.228,-1.239,-1.247,-1.253,-1.255,-1.254,-1.251,-1.246,-1.239,-1.232,-1.226,-1.22,-1.215,-1.212,-1.209,-1.208,-1.205,-1.202,-1.197,-1.19,-1.181,-1.168,-1.154,-1.137,-1.119,-1.101,-1.082,-1.065,-1.048,-1.033,-1.019,-1.006,-0.993,-0.981,-0.968,-0.953,-0.938,-0.921,-0.903,-0.885,-0.868,-0.852,-0.838,-0.828,-0.821,-0.819,-0.82,-0.825,-0.834,-0.844,-0.856,-0.869,-0.88,-0.891,-0.901,-0.909,-0.916,-0.923,-0.93,-0.937,-0.946,-0.956,-0.968,-0.981,-0.995,-1.009,-1.022,-1.034,-1.043,-1.05,-1.052,-1.052,-1.048,-1.042,-1.034,-1.025,-1.016,-1.009,-1.003,-0.998,-0.996,-0.996,-0.997,-0.999,-1,-1.002,-1.002,-1.002,-1.001,-0.999,-0.997,-0.996,-0.996,-0.998,-1.003,-1.01,-1.019,-1.03,-1.042,-1.055,-1.066,-1.077,-1.085,-1.09,-1.092,-1.091,-1.087,-1.082,-1.075,-1.067,-1.06,-1.053,-1.047,-1.041,-1.036,-1.031,-1.024,-1.017,-1.007,-0.994,-0.979,-0.961,-0.942,-0.92,-0.899,-0.877,-0.858,-0.84,-0.825,-0.812,-0.803,-0.796,-0.791,-0.787,-0.784,-0.78,-0.776,-0.771,-0.764,-0.758,-0.751,-0.745,-0.74,-0.737,-0.737,-0.74,-0.745,-0.753,-0.763,-0.774,-0.786,-0.796,-0.806,-0.815,-0.821,-0.826,-0.83,-0.833,-0.837,-0.841,-0.847,-0.855,-0.866,-0.878,-0.893,-0.908,-0.925,-0.941,-0.956,-0.97,-0.982,-0.992,-1.001,-1.008,-1.015,-1.021,-1.029,-1.038,-1.049,-1.062,-1.076,-1.091,-1.107,-1.122,-1.135,-1.147,-1.156,-1.163,-1.167,-1.169,-1.169,-1.168,-1.167,-1.167,-1.167,-1.17,-1.174,-1.179,-1.185,-1.191,-1.196,-1.199,-1.2,-1.199,-1.195,-1.188,-1.18,-1.17,-1.161,-1.151,-1.143,-1.137,-1.133,-1.131,-1.131,-1.132,-1.133,-1.133,-1.132,-1.129,-1.124,-1.116,-1.106,-1.094,-1.08,-1.065,-1.05,-1.035,-1.021,-1.007,-0.993,-0.979,-0.965,-0.949,-0.93,-0.909,-0.884,-0.857,-0.826,-0.793,-0.759,-0.724,-0.69,-0.657,-0.627,-0.601,-0.578,-0.558,-0.541,-0.526,-0.512,-0.499,-0.486,-0.473,-0.458,-0.441,-0.423,-0.404,-0.385,-0.366,-0.347,-0.328,-0.31,-0.293,-0.276,-0.259,-0.241,-0.222,-0.201,-0.179,-0.155,-0.13,-0.105,-0.08,-0.058,-0.038,-0.022,-0.011,-0.007,-0.008,-0.016,-0.029,-0.047,-0.07,-0.096,-0.125,-0.156,-0.188,-0.222,-0.257,-0.294,-0.333,-0.375,-0.42,-0.468,-0.52,-0.575,-0.633,-0.692,-0.752,-0.812,-0.87,-0.926,-0.978,-1.027,-1.071,-1.112,-1.149,-1.183,-1.215,-1.245,-1.273,-1.3,-1.325,-1.348,-1.369,-1.388,-1.402,-1.413,-1.42,-1.422,-1.421,-1.416,-1.41,-1.401,-1.393,-1.385,-1.379,-1.374,-1.372,-1.371,-1.372,-1.374,-1.375,-1.376,-1.374,-1.371,-1.364,-1.354,-1.342,-1.328,-1.312,-1.296,-1.279,-1.264,-1.249,-1.235,-1.222,-1.209,-1.196,-1.182,-1.167,-1.149,-1.129,-1.106,-1.081,-1.052,-1.022,-0.989,-0.954,-0.918,-0.88,-0.84,-0.796,-0.748,-0.694,-0.633,-0.563,-0.483,-0.393,-0.29,-0.177,-0.052,0.083,0.227,0.379,0.536,0.696,0.857,1.017,1.173,1.323,1.465,1.596,1.714,1.814,1.895,1.954,1.985,1.987,1.955,1.887,1.779,1.631,1.442,1.21,0.94,0.632,0.291,-0.078,-0.469,-0.876,-1.292,-1.709,-2.12,-2.518,-2.897,-3.251,-3.574,-3.862,-4.112,-4.32,-4.484,-4.602,-4.674,-4.701,-4.683,-4.622,-4.52,-4.383,-4.213,-4.016,-3.797,-3.563,-3.32,-3.073,-2.828,-2.59,-2.364,-2.153,-1.96,-1.785,-1.63,-1.495,-1.379,-1.281,-1.2,-1.134,-1.081,-1.041,-1.011,-0.991,-0.979,-0.974,-0.975,-0.98,-0.987,-0.995,-1.003,-1.008,-1.01,-1.007,-0.999,-0.984,-0.963,-0.937,-0.906,-0.871,-0.834,-0.795,-0.757,-0.719,-0.684,-0.651,-0.62,-0.592,-0.565,-0.54,-0.515,-0.491,-0.467,-0.443,-0.419,-0.396,-0.374,-0.353,-0.335,-0.318,-0.304,-0.291,-0.28,-0.27,-0.259,-0.247,-0.232,-0.214,-0.192,-0.166,-0.136,-0.102,-0.065,-0.027,0.011,0.049,0.086,0.12,0.151,0.179,0.203,0.225,0.244,0.261,0.276,0.29,0.303,0.314,0.325,0.333,0.339,0.342,0.342,0.34,0.335,0.328,0.319,0.31,0.302,0.295,0.291,0.291,0.294,0.3,0.31,0.323,0.338,0.353,0.368,0.381,0.393,0.402,0.408,0.412,0.413,0.413,0.411,0.409,0.407,0.405,0.404,0.403,0.401,0.399,0.395,0.389,0.381,0.371,0.358,0.344,0.329,0.313,0.297,0.283,0.271,0.261,0.254,0.249,0.246,0.245,0.243,0.242,0.24,0.236,0.231,0.225,0.217,0.209,0.201,0.194,0.189,0.186,0.185,0.188,0.192,0.198,0.204,0.211,0.217,0.221,0.223,0.223,0.221,0.217,0.212,0.207,0.203,0.2,0.199,0.2,0.203,0.208,0.214,0.221,0.227,0.232,0.235,0.236,0.235,0.231,0.225,0.218,0.209,0.2,0.19,0.181,0.171,0.16,0.148,0.134,0.117,0.097,0.072,0.042,0.007,-0.031,-0.074,-0.12,-0.169,-0.218,-0.267,-0.316,-0.362,-0.407,-0.45,-0.491,-0.531,-0.571,-0.61,-0.651,-0.692,-0.734,-0.778,-0.822,-0.866,-0.91,-0.952,-0.992,-1.03,-1.065,-1.097,-1.127,-1.156,-1.183,-1.211,-1.238,-1.267,-1.297,-1.328,-1.361,-1.394,-1.426,-1.458,-1.488,-1.516,-1.54,-1.561,-1.579,-1.594,-1.607,-1.618,-1.627,-1.637,-1.646,-1.655,-1.665,-1.674,-1.683,-1.69,-1.695,-1.698,-1.699,-1.696,-1.691,-1.683,-1.674,-1.665,-1.656,-1.649,-1.643,-1.64,-1.639,-1.64,-1.643,-1.646,-1.649,-1.651,-1.65,-1.647,-1.641,-1.631,-1.618,-1.603,-1.587,-1.57,-1.553,-1.538,-1.524,-1.511,-1.501,-1.491,-1.483,-1.475,-1.467,-1.459,-1.449,-1.439,-1.428,-1.417,-1.407,-1.397,-1.39,-1.386,-1.384,-1.385,-1.389,-1.396,-1.404,-1.412,-1.421,-1.428,-1.433,-1.436,-1.437,-1.436,-1.432,-1.428,-1.425,-1.421,-1.42,-1.421,-1.424,-1.429,-1.437,-1.446,-1.457,-1.467,-1.477,-1.485,-1.492,-1.498,-1.503,-1.506,-1.509,-1.513,-1.516,-1.521,-1.526,-1.531,-1.537,-1.542,-1.546,-1.547,-1.546,-1.54,-1.531,-1.518,-1.501,-1.482,-1.461,-1.438,-1.416,-1.395,-1.375,-1.357,-1.342,-1.328,-1.316,-1.304,-1.292,-1.28,-1.266,-1.251,-1.234,-1.215,-1.196,-1.176,-1.156,-1.136,-1.118,-1.101,-1.086,-1.071,-1.057,-1.043,-1.028,-1.011,-0.992,-0.97,-0.945,-0.919,-0.89,-0.861,-0.831,-0.803,-0.777,-0.754,-0.734,-0.718,-0.706,-0.697,-0.69,-0.684,-0.679,-0.674,-0.668,-0.661,-0.652,-0.643,-0.632,-0.62,-0.609,-0.598,-0.588,-0.578,-0.569,-0.56,-0.551,-0.541,-0.529,-0.515,-0.499,-0.48,-0.459,-0.436,-0.413,-0.39,-0.369,-0.35,-0.334,-0.322,-0.314,-0.31,-0.31,-0.312,-0.317,-0.322,-0.328,-0.334,-0.339,-0.343,-0.347,-0.35,-0.353,-0.357,-0.363,-0.37,-0.379,-0.39,-0.403,-0.416,-0.43,-0.444,-0.456,-0.466,-0.474,-0.479,-0.483,-0.485,-0.485,-0.486,-0.487,-0.489,-0.493,-0.499,-0.506,-0.515,-0.524,-0.532,-0.539,-0.544,-0.546,-0.546,-0.542,-0.536,-0.527,-0.517,-0.507,-0.497,-0.489,-0.482,-0.478,-0.476,-0.475,-0.476,-0.478,-0.48,-0.481,-0.48,-0.479,-0.475,-0.47,-0.464,-0.458,-0.451,-0.446,-0.442,-0.439,-0.438,-0.438,-0.438,-0.439,-0.439,-0.437,-0.435,-0.43,-0.424,-0.416,-0.408,-0.399,-0.392,-0.387,-0.385,-0.386,-0.391,-0.4,-0.411,-0.425,-0.441,-0.457,-0.473,-0.488,-0.501,-0.513,-0.523,-0.532,-0.539,-0.546,-0.552,-0.56,-0.567,-0.575,-0.584,-0.592,-0.599,-0.604,-0.607,-0.606,-0.602,-0.595,-0.585,-0.572,-0.558,-0.542,-0.528,-0.515,-0.504,-0.496,-0.491,-0.49,-0.491,-0.493,-0.498,-0.502,-0.507,-0.511,-0.514,-0.516,-0.517,-0.519,-0.52,-0.523,-0.526,-0.532,-0.538,-0.546,-0.554,-0.562,-0.568,-0.572,-0.573,-0.569,-0.562,-0.55,-0.535,-0.516,-0.495,-0.473,-0.451,-0.43,-0.41,-0.393,-0.379,-0.367,-0.357,-0.349,-0.342,-0.335,-0.329,-0.322,-0.315,-0.308,-0.3,-0.294,-0.288,-0.283,-0.28,-0.278,-0.277,-0.276,-0.275,-0.274,-0.27,-0.263,-0.254,-0.241,-0.225,-0.207,-0.186,-0.164,-0.143,-0.123,-0.105,-0.09,-0.079,-0.071,-0.066,-0.064,-0.064,-0.065,-0.066,-0.068,-0.069,-0.069,-0.069,-0.069,-0.07,-0.072,-0.077,-0.084,-0.094,-0.108,-0.124,-0.142,-0.163,-0.184,-0.204,-0.224,-0.243,-0.26,-0.275,-0.288,-0.301,-0.314,-0.327,-0.341,-0.357,-0.374,-0.393,-0.414,-0.435,-0.457,-0.477,-0.496,-0.512,-0.525,-0.535,-0.542,-0.546,-0.549,-0.55,-0.552,-0.553,-0.556,-0.56,-0.565,-0.572,-0.578,-0.585,-0.591,-0.596,-0.599,-0.599,-0.598,-0.595,-0.59,-0.585,-0.58,-0.576,-0.573,-0.572,-0.573,-0.575,-0.579,-0.583,-0.586,-0.588,-0.588,-0.585,-0.58,-0.571,-0.56,-0.547,-0.532,-0.518,-0.503,-0.489,-0.477,-0.465,-0.455,-0.445,-0.434,-0.423,-0.409,-0.394,-0.375,-0.354,-0.33,-0.305,-0.279,-0.253,-0.228,-0.205,-0.186,-0.17,-0.158,-0.149,-0.144,-0.141,-0.14,-0.14,-0.141,-0.141,-0.141,-0.141,-0.14,-0.14,-0.14,-0.141,-0.143,-0.145,-0.149,-0.153,-0.158,-0.161,-0.162,-0.161,-0.157,-0.149,-0.139,-0.125,-0.11,-0.094,-0.078,-0.063,-0.051,-0.042,-0.037,-0.036,-0.039,-0.047,-0.057,-0.07,-0.084,-0.099,-0.115,-0.131,-0.147,-0.164,-0.181,-0.199,-0.219,-0.241,-0.265,-0.291,-0.319,-0.348,-0.377,-0.405,-0.432,-0.456,-0.477,-0.493,-0.506,-0.514,-0.519,-0.52,-0.519,-0.516,-0.513,-0.508,-0.503,-0.497,-0.49,-0.481,-0.47,-0.457,-0.44,-0.419,-0.396,-0.369,-0.339,-0.308,-0.277,-0.246,-0.217,-0.19,-0.166,-0.145,-0.128,-0.114,-0.102,-0.091,-0.082,-0.072,-0.063,-0.054,-0.045,-0.037,-0.03,-0.024,-0.022,-0.022,-0.027,-0.036,-0.048,-0.065,-0.084,-0.106,-0.129,-0.152,-0.176,-0.199,-0.221,-0.243,-0.264,-0.285,-0.307,-0.329,-0.352,-0.377,-0.402,-0.428,-0.453,-0.477,-0.499,-0.517,-0.532,-0.542,-0.547,-0.547,-0.543,-0.536,-0.526,-0.514,-0.502,-0.491,-0.481,-0.471,-0.464,-0.458,-0.452,-0.447,-0.442,-0.436,-0.429,-0.422,-0.415,-0.408,-0.401,-0.397,-0.395,-0.397,-0.403,-0.412,-0.426,-0.442,-0.461,-0.482,-0.503,-0.523,-0.542,-0.558,-0.572,-0.584,-0.593,-0.6,-0.604,-0.608,-0.61,-0.611,-0.61,-0.606,-0.599,-0.587,-0.57,-0.545,-0.511,-0.468,-0.414,-0.35,-0.275,-0.19,-0.095,0.007,0.118,0.236,0.36,0.489,0.621,0.757,0.894,1.033,1.171,1.306,1.436,1.559,1.67,1.767,1.844,1.899,1.926,1.923,1.885,1.811,1.699,1.549,1.359,1.132,0.87,0.576,0.254,-0.091,-0.456,-0.834,-1.219,-1.606,-1.988,-2.359,-2.712,-3.042,-3.343,-3.61,-3.837,-4.022,-4.16,-4.25,-4.291,-4.284,-4.23,-4.132,-3.995,-3.824,-3.623,-3.399,-3.158,-2.907,-2.651,-2.395,-2.143,-1.901,-1.67,-1.454,-1.254,-1.072,-0.908,-0.763,-0.638,-0.531,-0.444,-0.374,-0.322,-0.286,-0.264,-0.255,-0.255,-0.263,-0.276,-0.291,-0.306,-0.318,-0.326,-0.329,-0.326,-0.316,-0.3,-0.279,-0.254,-0.226,-0.196,-0.165,-0.134,-0.103,-0.073,-0.044,-0.016,0.011,0.039,0.067,0.096,0.124,0.151,0.178,0.203,0.225,0.245,0.262,0.276,0.287,0.295,0.302,0.308,0.314,0.322,0.33,0.341,0.354,0.369,0.386,0.403,0.421,0.439,0.455,0.47,0.482,0.493,0.502,0.51,0.517,0.524,0.531,0.54,0.549,0.559,0.57,0.581,0.591,0.6,0.606,0.61,0.61,0.606,0.6,0.591,0.581,0.57,0.558,0.548,0.539,0.532,0.527,0.524,0.522,0.521,0.519,0.517,0.513,0.507,0.499,0.489,0.478,0.466,0.454,0.443,0.434,0.426,0.42,0.416,0.414,0.412,0.41,0.407,0.403,0.398,0.391,0.382,0.372,0.361,0.351,0.342,0.335,0.33,0.329,0.331,0.335,0.342,0.351,0.361,0.37,0.38,0.388,0.395,0.402,0.408,0.414,0.421,0.43,0.44,0.454,0.469,0.487,0.507,0.528,0.55,0.57,0.589,0.606,0.621,0.633,0.643,0.652,0.659,0.667,0.676,0.687,0.7,0.716,0.734,0.754,0.775,0.797,0.819,0.84,0.86,0.877,0.892,0.905,0.916,0.925,0.933,0.941,0.948,0.955,0.961,0.966,0.969,0.969,0.966,0.959,0.946,0.928,0.904,0.875,0.841,0.803,0.762,0.719,0.674,0.628,0.581,0.535,0.487,0.439,0.389,0.337,0.283,0.226,0.166,0.103,0.038,-0.027,-0.094,-0.16,-0.224,-0.287,-0.346,-0.403,-0.456,-0.507,-0.556,-0.603,-0.65,-0.697,-0.744,-0.792,-0.841,-0.889,-0.938,-0.985,-1.031,-1.075,-1.115,-1.152,-1.187,-1.218,-1.247,-1.275,-1.301,-1.328,-1.355,-1.382,-1.411,-1.44,-1.469,-1.497,-1.524,-1.549,-1.57,-1.588,-1.602,-1.612,-1.619,-1.624,-1.626,-1.628,-1.629,-1.631,-1.634,-1.638,-1.642,-1.647,-1.652,-1.656,-1.659,-1.659,-1.656,-1.651,-1.642,-1.631,-1.618,-1.604,-1.589,-1.574,-1.559,-1.544,-1.53,-1.515,-1.5,-1.484,-1.465,-1.445,-1.421,-1.395,-1.367,-1.336,-1.304,-1.272,-1.24,-1.21,-1.182,-1.157,-1.134,-1.114,-1.097,-1.08,-1.065,-1.049,-1.031,-1.012,-0.991,-0.967,-0.941,-0.914,-0.886,-0.858,-0.83,-0.804,-0.78,-0.757,-0.737,-0.718,-0.7,-0.683,-0.666,-0.649,-0.633,-0.616,-0.6,-0.585,-0.572,-0.562,-0.555,-0.552,-0.553,-0.558,-0.567,-0.579,-0.594,-0.609,-0.624,-0.638,-0.65,-0.658,-0.664,-0.666,-0.666,-0.664,-0.66,-0.656,-0.652,-0.649,-0.647,-0.646,-0.646,-0.646,-0.646,-0.645,-0.642,-0.638,-0.631,-0.622,-0.612,-0.601,-0.589,-0.578,-0.569,-0.561,-0.555,-0.552,-0.55,-0.549,-0.549,-0.548,-0.546,-0.542,-0.536,-0.527,-0.515,-0.502,-0.487,-0.472,-0.456,-0.442,-0.43,-0.42,-0.411,-0.405,-0.4,-0.395,-0.391,-0.386,-0.38,-0.373,-0.365,-0.357,-0.348,-0.34,-0.333,-0.327,-0.324,-0.323,-0.324,-0.326,-0.33,-0.333,-0.336,-0.336,-0.334,-0.329,-0.321,-0.309,-0.294,-0.278,-0.26,-0.242,-0.225,-0.21,-0.197,-0.186,-0.177,-0.17,-0.164,-0.158,-0.153,-0.146,-0.139,-0.13,-0.12,-0.108,-0.097,-0.086,-0.075,-0.067,-0.06,-0.055,-0.053,-0.051,-0.051,-0.051,-0.049,-0.047,-0.043,-0.036,-0.028,-0.018,-0.007,0.002,0.011,0.018,0.022,0.023,0.02,0.013,0.003,-0.008,-0.022,-0.037,-0.052,-0.065,-0.077,-0.087,-0.095,-0.102,-0.109,-0.114,-0.12,-0.126,-0.134,-0.141,-0.15,-0.158,-0.166,-0.172,-0.176,-0.178,-0.178,-0.174,-0.169,-0.161,-0.153,-0.144,-0.137,-0.131,-0.126,-0.124,-0.125,-0.127,-0.13,-0.134,-0.138,-0.14,-0.141,-0.139,-0.135,-0.129,-0.122,-0.115,-0.108,-0.102,-0.098,-0.097,-0.1,-0.105,-0.113,-0.123,-0.134,-0.147,-0.159,-0.171,-0.183,-0.193,-0.203,-0.213,-0.222,-0.233,-0.244,-0.257,-0.271,-0.287,-0.303,-0.319,-0.335,-0.349,-0.36,-0.368,-0.373,-0.373,-0.371,-0.366,-0.359,-0.35,-0.342,-0.334,-0.327,-0.321,-0.318,-0.315,-0.313,-0.311,-0.308,-0.303,-0.297,-0.288,-0.276,-0.262,-0.247,-0.232,-0.216,-0.201,-0.189,-0.178,-0.171,-0.166,-0.163,-0.162,-0.163,-0.164,-0.164,-0.165,-0.164,-0.163,-0.161,-0.159,-0.157,-0.156,-0.157,-0.16,-0.164,-0.171,-0.178,-0.187,-0.195,-0.202,-0.207,-0.209,-0.208,-0.204,-0.197,-0.188,-0.176,-0.163,-0.15,-0.137,-0.125,-0.115,-0.106,-0.098,-0.091,-0.083,-0.075,-0.065,-0.054,-0.04,-0.024,-0.006,0.013,0.032,0.052,0.07,0.087,0.101,0.112,0.121,0.128,0.133,0.136,0.14,0.143,0.148,0.153,0.158,0.164,0.17,0.176,0.18,0.182,0.182,0.18,0.175,0.168,0.161,0.152,0.144,0.137,0.132,0.129,0.127,0.127,0.128,0.13,0.131,0.13,0.127,0.121,0.112,0.099,0.084,0.067,0.049,0.031,0.013,-0.003,-0.017,-0.03,-0.04,-0.049,-0.057,-0.065,-0.072,-0.081,-0.092,-0.104,-0.117,-0.132,-0.148,-0.164,-0.179,-0.193,-0.205,-0.216,-0.224,-0.231,-0.236,-0.24,-0.244,-0.248,-0.253,-0.258,-0.264,-0.27,-0.275,-0.279,-0.282,-0.281,-0.278,-0.272,-0.263,-0.251,-0.238,-0.223,-0.208,-0.194,-0.182,-0.172,-0.164,-0.159,-0.156,-0.154,-0.153,-0.152,-0.15,-0.146,-0.139,-0.13,-0.119,-0.107,-0.093,-0.078,-0.064,-0.051,-0.038,-0.027,-0.018,-0.008,0,0.009,0.019,0.031,0.046,0.062,0.08,0.099,0.119,0.14,0.159,0.176,0.192,0.204,0.215,0.222,0.229,0.234,0.239,0.245,0.253,0.262,0.274,0.288,0.303,0.32,0.336,0.352,0.367,0.379,0.388,0.395,0.399,0.401,0.4,0.399,0.397,0.394,0.392,0.389,0.386,0.383,0.378,0.372,0.363,0.351,0.336,0.319,0.3,0.278,0.256,0.235,0.214,0.196,0.18,0.167,0.157,0.15,0.145,0.141,0.138,0.135,0.132,0.128,0.123,0.117,0.111,0.105,0.101,0.098,0.098,0.1,0.105,0.113,0.122,0.133,0.144,0.155,0.165,0.174,0.18,0.185,0.188,0.189,0.19,0.191,0.193,0.195,0.199,0.203,0.207,0.211,0.214,0.214,0.212,0.206,0.195,0.181,0.163,0.141,0.116,0.09,0.064,0.037,0.012,-0.011,-0.033,-0.053,-0.071,-0.088,-0.105,-0.121,-0.136,-0.152,-0.167,-0.181,-0.194,-0.204,-0.211,-0.213,-0.211,-0.204,-0.192,-0.175,-0.154,-0.129,-0.102,-0.074,-0.045,-0.018,0.008,0.033,0.056,0.078,0.098,0.118,0.138,0.157,0.177,0.196,0.214,0.232,0.247,0.259,0.268,0.274,0.274,0.271,0.264,0.255,0.243,0.23,0.217,0.205,0.195,0.188,0.182,0.179,0.178,0.178,0.18,0.182,0.185,0.189,0.194,0.2,0.21,0.224,0.244,0.27,0.305,0.348,0.401,0.463,0.535,0.615,0.704,0.799,0.9,1.005,1.114,1.224,1.334,1.444,1.55,1.653,1.749,1.837,1.913,1.974,2.017,2.039,2.035,2.003,1.939,1.841,1.707,1.537,1.331,1.09,0.817,0.515,0.189,-0.157,-0.518,-0.887,-1.259,-1.628,-1.988,-2.332,-2.656,-2.955,-3.223,-3.456,-3.652,-3.805,-3.916,-3.981,-4,-3.975,-3.905,-3.795,-3.647,-3.466,-3.257,-3.025,-2.776,-2.516,-2.251,-1.986,-1.725,-1.472,-1.231,-1.004,-0.793,-0.599,-0.421,-0.262,-0.119,0.005,0.114,0.207,0.284,0.346,0.395,0.431,0.457,0.473,0.481,0.484,0.484,0.483,0.482,0.483,0.487,0.496,0.508,0.525,0.544,0.566,0.588,0.61,0.632,0.651,0.668,0.682,0.693,0.702,0.71,0.716,0.721,0.725,0.729,0.732,0.734,0.735,0.734,0.731,0.725,0.716,0.705,0.692,0.677,0.663,0.649,0.638,0.629,0.624,0.623,0.626,0.633,0.643,0.655,0.668,0.681,0.693,0.703,0.711,0.717,0.72,0.722,0.723,0.723,0.723,0.724,0.726,0.73,0.733,0.738,0.741,0.744,0.745,0.745,0.742,0.737,0.731,0.723,0.716,0.708,0.702,0.698,0.696,0.697,0.7,0.704,0.71,0.715,0.72,0.724,0.726,0.726,0.725,0.721,0.717,0.713,0.71,0.708,0.708,0.711,0.717,0.726,0.736,0.749,0.762,0.776,0.789,0.801,0.813,0.824,0.835,0.845,0.857,0.87,0.885,0.901,0.92,0.941,0.963,0.985,1.007,1.027,1.046,1.062,1.074,1.084,1.092,1.097,1.102,1.107,1.112,1.12,1.129,1.141,1.156,1.172,1.19,1.209,1.228,1.245,1.262,1.276,1.289,1.299,1.309,1.318,1.327,1.336,1.346,1.357,1.368,1.38,1.392,1.402,1.411,1.416,1.419,1.417,1.411,1.4,1.387,1.37,1.352,1.332,1.312,1.291,1.271,1.252,1.232,1.212,1.191,1.167,1.141,1.112,1.08,1.043,1.004,0.962,0.917,0.872,0.826,0.78,0.734,0.689,0.644,0.599,0.553,0.506,0.456,0.404,0.348,0.29,0.228,0.163,0.097,0.031,-0.035,-0.1,-0.163,-0.223,-0.281,-0.335,-0.386,-0.435,-0.483,-0.529,-0.575,-0.62,-0.665,-0.71,-0.753,-0.796,-0.836,-0.873,-0.907,-0.936,-0.962,-0.985,-1.004,-1.02,-1.035,-1.049,-1.063,-1.077,-1.092,-1.108,-1.124,-1.141,-1.156,-1.17,-1.182,-1.191,-1.197,-1.199,-1.199,-1.195,-1.19,-1.183,-1.176,-1.169,-1.163,-1.158,-1.154,-1.151,-1.147,-1.142,-1.136,-1.127,-1.116,-1.101,-1.082,-1.061,-1.038,-1.014,-0.989,-0.966,-0.944,-0.924,-0.907,-0.893,-0.881,-0.871,-0.863,-0.856,-0.848,-0.84,-0.831,-0.822,-0.811,-0.801,-0.79,-0.78,-0.771,-0.764,-0.758,-0.753,-0.749,-0.746,-0.742,-0.736,-0.729,-0.72,-0.708,-0.693,-0.676,-0.658,-0.638,-0.619,-0.602,-0.587,-0.574,-0.565,-0.559,-0.556,-0.556,-0.557,-0.559,-0.561,-0.562,-0.562,-0.561,-0.558,-0.555,-0.551,-0.548,-0.546,-0.545,-0.546,-0.55,-0.555,-0.561,-0.569,-0.576,-0.583,-0.588,-0.591,-0.592,-0.591,-0.588,-0.584,-0.58,-0.575,-0.572,-0.571,-0.571,-0.573,-0.576,-0.58,-0.585,-0.588,-0.59,-0.59,-0.587,-0.582,-0.573,-0.563,-0.551,-0.539,-0.527,-0.516,-0.507,-0.5,-0.496,-0.493,-0.492,-0.492,-0.492,-0.492,-0.49,-0.488,-0.484,-0.478,-0.473,-0.466,-0.461,-0.456,-0.453,-0.452,-0.453,-0.455,-0.458,-0.461,-0.464,-0.465,-0.464,-0.461,-0.454,-0.444,-0.431,-0.417,-0.401,-0.384,-0.368,-0.353,-0.34,-0.328,-0.317,-0.308,-0.298,-0.289,-0.279,-0.267,-0.253,-0.238,-0.22,-0.201,-0.182,-0.162,-0.143,-0.126,-0.11,-0.097,-0.086,-0.077,-0.07,-0.063,-0.056,-0.049,-0.04,-0.03,-0.019,-0.006,0.007,0.021,0.034,0.047,0.058,0.067,0.075,0.081,0.085,0.09,0.095,0.101,0.109,0.119,0.132,0.146,0.162,0.179,0.195,0.211,0.224,0.235,0.243,0.247,0.249,0.248,0.245,0.241,0.237,0.234,0.232,0.232,0.233,0.236,0.239,0.243,0.247,0.25,0.251,0.251,0.249,0.247,0.243,0.24,0.237,0.236,0.236,0.238,0.242,0.247,0.252,0.258,0.263,0.267,0.268,0.267,0.263,0.257,0.249,0.24,0.23,0.221,0.213,0.207,0.203,0.2,0.199,0.199,0.198,0.197,0.194,0.188,0.181,0.171,0.159,0.145,0.131,0.117,0.103,0.092,0.082,0.075,0.069,0.066,0.064,0.061,0.059,0.055,0.049,0.042,0.032,0.021,0.008,-0.004,-0.016,-0.027,-0.037,-0.044,-0.048,-0.05,-0.051,-0.05,-0.048,-0.047,-0.046,-0.046,-0.047,-0.049,-0.052,-0.054,-0.055,-0.055,-0.052,-0.046,-0.037,-0.025,-0.01,0.007,0.025,0.045,0.065,0.084,0.102,0.119,0.135,0.151,0.166,0.182,0.199,0.217,0.237,0.258,0.28,0.304,0.327,0.348,0.368,0.386,0.4,0.411,0.419,0.424,0.427,0.429,0.43,0.432,0.436,0.44,0.447,0.454,0.463,0.471,0.479,0.485,0.488,0.489,0.488,0.483,0.476,0.467,0.457,0.447,0.438,0.43,0.423,0.418,0.414,0.41,0.406,0.401,0.395,0.387,0.378,0.366,0.354,0.341,0.328,0.317,0.308,0.302,0.299,0.3,0.304,0.311,0.32,0.33,0.339,0.348,0.354,0.358,0.359,0.358,0.354,0.348,0.34,0.331,0.322,0.313,0.304,0.294,0.284,0.273,0.26,0.245,0.227,0.208,0.187,0.164,0.14,0.117,0.095,0.076,0.059,0.047,0.039,0.034,0.034,0.037,0.041,0.047,0.054,0.059,0.064,0.068,0.07,0.072,0.073,0.075,0.078,0.083,0.09,0.099,0.11,0.124,0.138,0.152,0.166,0.179,0.19,0.199,0.206,0.211,0.216,0.22,0.225,0.231,0.24,0.251,0.265,0.282,0.3,0.321,0.343,0.364,0.385,0.406,0.425,0.442,0.459,0.476,0.492,0.509,0.527,0.546,0.566,0.587,0.608,0.627,0.645,0.66,0.672,0.678,0.68,0.676,0.668,0.655,0.639,0.621,0.601,0.581,0.562,0.543,0.525,0.507,0.49,0.472,0.453,0.433,0.41,0.386,0.359,0.331,0.301,0.271,0.241,0.213,0.186,0.161,0.139,0.119,0.101,0.084,0.069,0.054,0.04,0.026,0.011,-0.002,-0.015,-0.026,-0.036,-0.043,-0.046,-0.046,-0.042,-0.036,-0.026,-0.015,-0.003,0.008,0.018,0.026,0.031,0.033,0.033,0.03,0.025,0.02,0.014,0.009,0.005,0.003,0.002,0.002,0.003,0.005,0.005,0.006,0.005,0.004,0.002,0,0,0.001,0.005,0.014,0.029,0.049,0.075,0.108,0.147,0.192,0.241,0.296,0.354,0.416,0.482,0.551,0.625,0.703,0.786,0.874,0.967,1.066,1.169,1.276,1.385,1.495,1.602,1.705,1.801,1.887,1.961,2.02,2.062,2.085,2.088,2.068,2.024,1.955,1.86,1.738,1.589,1.411,1.206,0.973,0.715,0.432,0.129,-0.191,-0.524,-0.864,-1.206,-1.542,-1.866,-2.173,-2.456,-2.711,-2.933,-3.12,-3.268,-3.377,-3.447,-3.478,-3.471,-3.429,-3.354,-3.248,-3.116,-2.959,-2.781,-2.587,-2.379,-2.162,-1.939,-1.715,-1.494,-1.279,-1.074,-0.882,-0.706,-0.547,-0.407,-0.285,-0.181,-0.095,-0.023,0.034,0.081,0.118,0.149,0.175,0.197,0.217,0.235,0.252,0.268,0.284,0.299,0.315,0.33,0.347,0.364,0.383,0.404,0.426,0.451,0.477,0.504,0.531,0.557,0.58,0.6,0.614,0.623,0.625,0.622,0.612,0.597,0.579,0.558,0.536,0.515,0.495,0.478,0.465,0.455,0.449,0.446,0.447,0.45,0.456,0.463,0.473,0.484,0.498,0.513,0.532,0.553,0.577,0.604,0.633,0.663,0.694,0.724,0.751,0.776,0.797,0.814,0.826,0.833,0.836,0.836,0.834,0.83,0.826,0.822,0.82,0.819,0.82,0.822,0.825,0.828,0.831,0.833,0.834,0.834,0.833,0.831,0.829,0.828,0.828,0.831,0.835,0.842,0.85,0.861,0.872,0.882,0.892,0.9,0.905,0.908,0.907,0.903,0.897,0.89,0.882,0.875,0.869,0.865,0.864,0.865,0.868,0.873,0.88,0.888,0.896,0.905,0.913,0.921,0.929,0.938,0.948,0.96,0.974,0.991,1.011,1.033,1.057,1.083,1.108,1.133,1.157,1.177,1.194,1.208,1.217,1.224,1.227,1.227,1.226,1.224,1.221,1.218,1.215,1.211,1.207,1.202,1.194,1.185,1.173,1.159,1.143,1.125,1.107,1.088,1.07,1.054,1.039,1.028,1.018,1.011,1.005,1,0.994,0.987,0.978,0.966,0.95,0.93,0.907,0.881,0.852,0.821,0.789,0.756,0.723,0.689,0.654,0.619,0.582,0.543,0.501,0.456,0.407,0.355,0.3,0.242,0.182,0.122,0.062,0.002,-0.055,-0.111,-0.165,-0.217,-0.267,-0.317,-0.367,-0.416,-0.467,-0.518,-0.57,-0.622,-0.673,-0.724,-0.773,-0.818,-0.861,-0.899,-0.933,-0.963,-0.989,-1.012,-1.033,-1.052,-1.071,-1.089,-1.107,-1.125,-1.143,-1.161,-1.177,-1.191,-1.203,-1.213,-1.219,-1.222,-1.222,-1.22,-1.217,-1.212,-1.207,-1.203,-1.199,-1.196,-1.194,-1.191,-1.188,-1.183,-1.177,-1.168,-1.157,-1.143,-1.126,-1.108,-1.088,-1.069,-1.052,-1.036,-1.023,-1.013,-1.006,-1.003,-1.001,-1.002,-1.003,-1.004,-1.003,-1.001,-0.997,-0.99,-0.982,-0.972,-0.96,-0.948,-0.936,-0.924,-0.913,-0.902,-0.892,-0.882,-0.872,-0.86,-0.847,-0.832,-0.816,-0.798,-0.779,-0.76,-0.743,-0.726,-0.713,-0.703,-0.697,-0.694,-0.695,-0.699,-0.705,-0.713,-0.721,-0.729,-0.736,-0.741,-0.746,-0.749,-0.751,-0.753,-0.756,-0.76,-0.766,-0.774,-0.783,-0.794,-0.806,-0.817,-0.828,-0.836,-0.842,-0.846,-0.846,-0.843,-0.838,-0.831,-0.823,-0.815,-0.808,-0.802,-0.797,-0.794,-0.793,-0.792,-0.792,-0.792,-0.79,-0.786,-0.781,-0.773,-0.764,-0.752,-0.74,-0.727,-0.715,-0.703,-0.692,-0.682,-0.673,-0.664,-0.655,-0.645,-0.633,-0.619,-0.602,-0.582,-0.56,-0.535,-0.508,-0.481,-0.455,-0.429,-0.405,-0.382,-0.362,-0.344,-0.328,-0.312,-0.296,-0.28,-0.262,-0.243,-0.222,-0.2,-0.177,-0.153,-0.13,-0.109,-0.089,-0.071,-0.057,-0.045,-0.035,-0.027,-0.02,-0.013,-0.005,0.003,0.013,0.024,0.037,0.051,0.065,0.079,0.092,0.102,0.111,0.117,0.121,0.123,0.124,0.125,0.125,0.127,0.13,0.135,0.141,0.148,0.155,0.163,0.169,0.174,0.178,0.179,0.178,0.176,0.172,0.169,0.167,0.167,0.169,0.174,0.183,0.194,0.209,0.226,0.244,0.262,0.28,0.296,0.311,0.325,0.336,0.347,0.356,0.364,0.373,0.382,0.391,0.4,0.409,0.418,0.425,0.431,0.434,0.434,0.431,0.425,0.416,0.407,0.396,0.385,0.376,0.369,0.364,0.361,0.361,0.364,0.367,0.371,0.374,0.376,0.376,0.374,0.368,0.361,0.351,0.339,0.327,0.316,0.305,0.295,0.287,0.28,0.275,0.271,0.266,0.262,0.256,0.248,0.239,0.229,0.217,0.204,0.192,0.18,0.169,0.16,0.153,0.147,0.142,0.138,0.133,0.127,0.119,0.108,0.094,0.076,0.056,0.033,0.008,-0.017,-0.043,-0.069,-0.093,-0.116,-0.137,-0.156,-0.174,-0.192,-0.21,-0.227,-0.246,-0.266,-0.285,-0.305,-0.325,-0.342,-0.358,-0.369,-0.377,-0.38,-0.378,-0.372,-0.362,-0.35,-0.335,-0.319,-0.303,-0.287,-0.273,-0.26,-0.249,-0.238,-0.228,-0.218,-0.208,-0.197,-0.184,-0.17,-0.155,-0.139,-0.123,-0.108,-0.093,-0.08,-0.069,-0.059,-0.05,-0.041,-0.033,-0.023,-0.011,0.002,0.019,0.039,0.061,0.085,0.11,0.135,0.158,0.179,0.197,0.211,0.221,0.227,0.23,0.23,0.229,0.227,0.225,0.224,0.224,0.225,0.228,0.232,0.236,0.24,0.245,0.248,0.251,0.254,0.256,0.26,0.265,0.273,0.284,0.298,0.316,0.338,0.362,0.39,0.419,0.448,0.477,0.504,0.53,0.552,0.572,0.59,0.605,0.619,0.631,0.643,0.654,0.664,0.674,0.682,0.689,0.694,0.695,0.692,0.686,0.675,0.659,0.639,0.616,0.591,0.564,0.536,0.508,0.48,0.453,0.427,0.401,0.374,0.346,0.317,0.286,0.251,0.214,0.174,0.132,0.089,0.045,0,-0.042,-0.083,-0.122,-0.159,-0.193,-0.225,-0.255,-0.284,-0.311,-0.338,-0.365,-0.39,-0.414,-0.436,-0.456,-0.471,-0.482,-0.487,-0.486,-0.479,-0.466,-0.448,-0.425,-0.399,-0.37,-0.34,-0.31,-0.28,-0.252,-0.225,-0.2,-0.177,-0.154,-0.132,-0.11,-0.088,-0.067,-0.046,-0.026,-0.008,0.008,0.021,0.032,0.039,0.043,0.045,0.045,0.044,0.043,0.044,0.047,0.054,0.066,0.082,0.103,0.129,0.159,0.193,0.23,0.271,0.314,0.361,0.41,0.463,0.52,0.582,0.649,0.722,0.801,0.885,0.974,1.068,1.163,1.26,1.356,1.449,1.537,1.62,1.694,1.759,1.813,1.855,1.884,1.898,1.895,1.875,1.834,1.772,1.687,1.575,1.438,1.272,1.079,0.858,0.61,0.339,0.048,-0.26,-0.58,-0.908,-1.237,-1.562,-1.878,-2.18,-2.462,-2.721,-2.954,-3.157,-3.329,-3.467,-3.571,-3.641,-3.674,-3.674,-3.639,-3.572,-3.474,-3.347,-3.196,-3.024,-2.834,-2.63,-2.419,-2.203,-1.988,-1.777,-1.575,-1.383,-1.204,-1.039,-0.888,-0.753,-0.632,-0.524,-0.428,-0.344,-0.269,-0.203,-0.146,-0.095,-0.052,-0.014,0.017,0.045,0.068,0.089,0.108,0.127,0.145,0.166,0.188,0.213,0.241,0.271,0.303,0.336,0.369,0.4,0.429,0.455,0.477,0.495,0.509,0.519,0.527,0.533,0.539,0.545,0.552,0.562,0.573,0.587,0.603,0.62,0.638,0.657,0.676,0.695,0.713,0.732,0.751,0.771,0.793,0.816,0.841,0.867,0.896,0.925,0.955,0.983,1.009,1.032,1.05,1.063,1.071,1.074,1.071,1.065,1.055,1.044,1.03,1.017,1.004,0.992,0.98,0.969,0.957,0.946,0.933,0.919,0.903,0.884,0.864,0.843,0.82,0.798,0.775,0.754,0.734,0.715,0.698,0.681,0.665,0.649,0.632,0.613,0.593,0.571,0.547,0.523,0.499,0.475,0.454,0.435,0.421,0.412,0.407,0.407,0.412,0.421,0.432,0.444,0.458,0.471,0.483,0.494,0.504,0.512,0.52,0.526,0.533,0.54,0.546,0.554,0.561,0.568,0.575,0.581,0.585,0.587,0.588,0.588,0.587,0.587,0.587,0.589,0.595,0.604,0.618,0.635,0.657,0.683,0.711,0.74,0.771,0.8,0.829,0.855,0.879,0.901,0.92,0.938,0.954,0.97,0.986,1.001,1.017,1.032,1.046,1.059,1.069,1.077,1.08,1.079,1.074,1.064,1.051,1.034,1.016,0.996,0.975,0.955,0.935,0.916,0.897,0.879,0.86,0.839,0.817,0.791,0.762,0.73,0.695,0.656,0.615,0.573,0.529,0.485,0.442,0.399,0.356,0.313,0.27,0.226,0.179,0.129,0.077,0.021,-0.038,-0.101,-0.166,-0.232,-0.299,-0.365,-0.429,-0.49,-0.548,-0.603,-0.655,-0.704,-0.75,-0.795,-0.839,-0.882,-0.924,-0.966,-1.007,-1.047,-1.085,-1.121,-1.153,-1.181,-1.205,-1.226,-1.242,-1.255,-1.266,-1.275,-1.283,-1.29,-1.298,-1.306,-1.315,-1.324,-1.332,-1.339,-1.345,-1.349,-1.351,-1.35,-1.347,-1.343,-1.338,-1.332,-1.327,-1.323,-1.322,-1.322,-1.324,-1.328,-1.333,-1.337,-1.341,-1.343,-1.343,-1.339,-1.332,-1.322,-1.308,-1.292,-1.275,-1.256,-1.238,-1.22,-1.203,-1.187,-1.172,-1.158,-1.144,-1.131,-1.116,-1.101,-1.085,-1.067,-1.049,-1.032,-1.014,-0.999,-0.985,-0.974,-0.966,-0.961,-0.958,-0.956,-0.956,-0.955,-0.953,-0.949,-0.943,-0.934,-0.922,-0.908,-0.893,-0.877,-0.861,-0.847,-0.834,-0.824,-0.816,-0.811,-0.808,-0.805,-0.804,-0.802,-0.799,-0.795,-0.789,-0.783,-0.775,-0.767,-0.76,-0.754,-0.749,-0.747,-0.746,-0.747,-0.75,-0.753,-0.755,-0.756,-0.754,-0.749,-0.741,-0.728,-0.712,-0.693,-0.671,-0.649,-0.625,-0.602,-0.58,-0.559,-0.539,-0.521,-0.504,-0.487,-0.47,-0.453,-0.435,-0.417,-0.397,-0.378,-0.359,-0.341,-0.325,-0.312,-0.301,-0.294,-0.29,-0.288,-0.288,-0.289,-0.289,-0.289,-0.288,-0.284,-0.279,-0.271,-0.263,-0.253,-0.244,-0.235,-0.228,-0.224,-0.222,-0.223,-0.226,-0.23,-0.235,-0.24,-0.245,-0.248,-0.249,-0.248,-0.246,-0.243,-0.239,-0.236,-0.235,-0.236,-0.239,-0.245,-0.253,-0.264,-0.276,-0.289,-0.302,-0.314,-0.325,-0.334,-0.341,-0.346,-0.35,-0.353,-0.356,-0.358,-0.362,-0.366,-0.37,-0.374,-0.378,-0.38,-0.379,-0.376,-0.368,-0.357,-0.342,-0.323,-0.301,-0.278,-0.254,-0.23,-0.208,-0.189,-0.173,-0.161,-0.152,-0.147,-0.146,-0.146,-0.149,-0.152,-0.157,-0.163,-0.169,-0.177,-0.186,-0.197,-0.21,-0.226,-0.244,-0.265,-0.287,-0.309,-0.331,-0.351,-0.368,-0.382,-0.391,-0.396,-0.396,-0.391,-0.383,-0.371,-0.358,-0.344,-0.329,-0.315,-0.303,-0.291,-0.28,-0.27,-0.261,-0.251,-0.24,-0.229,-0.218,-0.206,-0.195,-0.185,-0.177,-0.171,-0.168,-0.168,-0.173,-0.18,-0.19,-0.203,-0.216,-0.23,-0.242,-0.254,-0.264,-0.271,-0.277,-0.282,-0.286,-0.29,-0.295,-0.302,-0.31,-0.32,-0.333,-0.346,-0.361,-0.375,-0.39,-0.403,-0.414,-0.424,-0.433,-0.44,-0.447,-0.455,-0.463,-0.473,-0.485,-0.5,-0.516,-0.533,-0.551,-0.569,-0.585,-0.599,-0.61,-0.617,