1.8799e-06,2.3628e-05,0.00014778,0.00061989,0.0019825,0.0052049,0.011772,0.023713,0.043568,0.074271,0.11898,0.18084,0.26276,0.36717,0.49573,0.64922,0.8274,1.029,1.2515,1.4918,1.7457,2.0088,2.276,2.5426,2.8039,3.0555,3.2936,3.5152,3.7178,3.8997,4.0596,4.197,4.3116,4.4037,4.4736,4.5223,4.5506,4.5598,4.5515,4.5274,4.4899,4.4412,4.3843,4.3219,4.2573,4.1932,4.1326,4.0779,4.0311,3.9935,3.9661,3.9488,3.9414,3.9428,3.9518,3.9669,3.9865,4.0091,4.0334,4.0583,4.083,4.1071,4.1303,4.1523,4.1732,4.1927,4.2106,4.2265,4.2399,4.2501,4.2565,4.2584,4.2554,4.2472,4.2338,4.2155,4.1932,4.1677,4.1402,4.112,4.0843,4.0583,4.0347,4.0142,3.9969,3.9828,3.9714,3.9621,3.9544,3.9477,3.9415,3.9355,3.9299,3.9248,3.9209,3.9186,3.9188,3.922,3.9288,3.9393,3.9535,3.971,3.9911,4.0129,4.0353,4.0574,4.0781,4.0968,4.1129,4.1263,4.137,4.1454,4.1521,4.1576,4.1626,4.1673,4.1722,4.1771,4.1818,4.1858,4.1884,4.1891,4.1871,4.1821,4.1738,4.1622,4.1478,4.1312,4.1133,4.0951,4.0775,4.0613,4.0473,4.0356,4.0265,4.0195,4.0142,4.01,4.0059,4.0014,3.9959,3.9892,3.9813,3.9724,3.9631,3.9544,3.9469,3.9417,3.9393,3.9404,3.9451,3.9533,3.9648,3.9787,3.9945,4.0112,4.0282,4.045,4.0611,4.0765,4.0915,4.1065,4.1219,4.1384,4.1564,4.1764,4.1983,4.222,4.247,4.2724,4.2974,4.3209,4.342,4.3597,4.3735,4.383,4.3883,4.3896,4.3876,4.3828,4.3761,4.3681,4.3594,4.3502,4.3406,4.3306,4.3198,4.3078,4.2941,4.2787,4.2615,4.2428,4.2232,4.2038,4.1859,4.1709,4.1604,4.156,4.159,4.1706,4.1916,4.2224,4.2631,4.3135,4.3732,4.4417,4.5183,4.6025,4.694,4.7923,4.8974,5.0088,5.1265,5.2498,5.3779,5.5096,5.6431,5.7759,5.9051,6.027,6.1379,6.2333,6.309,6.3607,6.3844,6.3766,6.3344,6.2554,6.1383,5.9823,5.7877,5.5555,5.2875,4.9862,4.655,4.2979,3.9196,3.5256,3.1218,2.7147,2.3113,1.9187,1.5442,1.195,0.87796,0.5993,0.36439,0.17754,0.041776,-0.041254,-0.07135,-0.049739,0.021009,0.13715,0.29398,0.48607,0.70757,0.95241,1.2146,1.4883,1.7683,2.0495,2.3275,2.5985,2.8591,3.1063,3.3376,3.5508,3.7442,3.9163,4.0663,4.1937,4.2986,4.3817,4.4443,4.4882,4.5157,4.5296,4.5327,4.5282,4.5191,4.508,4.4973,4.4889,4.4841,4.4835,4.4874,4.4956,4.5077,4.5228,4.5403,4.5595,4.5799,4.6012,4.6232,4.6458,4.6692,4.6932,4.718,4.7432,4.7683,4.7927,4.8155,4.8358,4.8526,4.8651,4.8726,4.8748,4.8716,4.8635,4.8512,4.8356,4.8181,4.7998,4.782,4.7657,4.7516,4.7404,4.732,4.7264,4.7232,4.7218,4.7217,4.7226,4.724,4.7259,4.7286,4.7323,4.7377,4.7454,4.756,4.7697,4.7869,4.8075,4.8309,4.8564,4.883,4.9097,4.9353,4.9586,4.979,4.9958,5.0088,5.0183,5.0246,5.0285,5.0309,5.0325,5.0343,5.0367,5.04,5.0444,5.0496,5.0552,5.0607,5.0656,5.0694,5.0719,5.0731,5.0732,5.0729,5.0726,5.0735,5.0761,5.0814,5.0899,5.1017,5.1169,5.135,5.1553,5.1769,5.1989,5.2202,5.2398,5.2573,5.272,5.2841,5.2936,5.3011,5.3071,5.3124,5.3174,5.3228,5.3288,5.3353,5.3422,5.349,5.3554,5.3606,5.3644,5.3664,5.3667,5.3655,5.3634,5.3613,5.36,5.3606,5.364,5.3709,5.3819,5.3969,5.4159,5.4382,5.4628,5.4889,5.5153,5.5409,5.5648,5.5865,5.6055,5.6218,5.6356,5.6473,5.6575,5.6666,5.675,5.6829,5.6905,5.6973,5.703,5.7069,5.7085,5.707,5.7021,5.6935,5.6812,5.6656,5.6472,5.6268,5.6053,5.5834,5.562,5.5415,5.5221,5.5037,5.486,5.4683,5.4496,5.4291,5.4061,5.3796,5.3494,5.3152,5.2771,5.2354,5.1909,5.144,5.0956,5.0461,4.996,4.9453,4.8941,4.842,4.7886,4.7332,4.6753,4.6145,4.5508,4.484,4.4148,4.3438,4.272,4.2004,4.1301,4.0623,3.9978,3.9371,3.8806,3.828,3.7792,3.7335,3.6902,3.6487,3.6084,3.5689,3.5301,3.4919,3.4549,3.4194,3.3862,3.3557,3.3285,3.3049,3.2849,3.2682,3.2544,3.2427,3.2323,3.2224,3.2122,3.2012,3.189,3.1756,3.1613,3.1468,3.1327,3.1197,3.1088,3.1005,3.0952,3.0929,3.0935,3.0965,3.1012,3.1068,3.1125,3.1177,3.1219,3.125,3.127,3.1283,3.1295,3.1313,3.1345,3.1398,3.1475,3.1579,3.1708,3.1858,3.2021,3.219,3.2355,3.2507,3.2639,3.2746,3.2828,3.2885,3.2924,3.2952,3.2977,3.301,3.3058,3.3129,3.3227,3.3352,3.3502,3.3674,3.3861,3.4055,3.425,3.4441,3.4625,3.48,3.4968,3.5134,3.5302,3.548,3.5671,3.5881,3.6112,3.6361,3.6625,3.6897,3.7168,3.7429,3.767,3.7883,3.8063,3.8206,3.8313,3.8389,3.8438,3.8471,3.8496,3.8521,3.8554,3.8599,3.8659,3.8731,3.8813,3.8899,3.8982,3.9055,3.9115,3.9157,3.9182,3.9191,3.919,3.9185,3.9186,3.9199,3.9231,3.9288,3.9371,3.9479,3.9607,3.9748,3.9894,4.0035,4.0162,4.0269,4.0352,4.0408,4.0439,4.0451,4.0449,4.0442,4.0438,4.0443,4.0463,4.05,4.0554,4.0621,4.0699,4.078,4.0859,4.093,4.0991,4.1039,4.1076,4.1106,4.1133,4.1165,4.1208,4.1267,4.1347,4.1448,4.1569,4.1704,4.1847,4.1988,4.2119,4.2231,4.2316,4.237,4.239,4.2379,4.2341,4.2282,4.221,4.2134,4.2061,4.1996,4.1943,4.1903,4.1873,4.1849,4.1826,4.1798,4.1761,4.1712,4.1649,4.1576,4.1497,4.142,4.1354,4.1309,4.1293,4.1314,4.1375,4.1479,4.1621,4.1798,4.2001,4.2219,4.2443,4.2663,4.2873,4.3067,4.3243,4.3404,4.3552,4.3694,4.3837,4.3987,4.4148,4.4325,4.4516,4.4719,4.493,4.514,4.5343,4.5529,4.5693,4.5831,4.5939,4.6019,4.6074,4.611,4.6133,4.6151,4.617,4.6195,4.6227,4.6267,4.6313,4.6359,4.64,4.6429,4.6441,4.6431,4.6399,4.6345,4.6274,4.6192,4.6108,4.6028,4.5963,4.5917,4.5895,4.5898,4.5922,4.5963,4.6013,4.6062,4.6102,4.6125,4.6124,4.6096,4.6043,4.5967,4.5876,4.5777,4.5681,4.5597,4.5533,4.5494,4.5483,4.55,4.5542,4.5603,4.5675,4.5753,4.5829,4.5898,4.5958,4.6007,4.605,4.6088,4.6126,4.617,4.6222,4.6285,4.6357,4.6436,4.6515,4.6586,4.6642,4.6673,4.6672,4.6635,4.6559,4.6445,4.6299,4.6127,4.594,4.5747,4.556,4.5386,4.5232,4.5102,4.4996,4.4911,4.4842,4.4782,4.4724,4.4661,4.459,4.4506,4.4411,4.4308,4.4201,4.4099,4.4007,4.3933,4.3883,4.386,4.3865,4.3895,4.3946,4.4013,4.4086,4.416,4.4228,4.4286,4.433,4.4362,4.4384,4.4399,4.4413,4.443,4.4454,4.4488,4.4531,4.4581,4.4633,4.4681,4.4717,4.4735,4.4728,4.4692,4.4629,4.4539,4.443,4.4309,4.4188,4.4078,4.399,4.3933,4.3913,4.3935,4.3996,4.4094,4.4222,4.4371,4.4532,4.4697,4.4857,4.5009,4.5149,4.528,4.5403,4.5525,4.565,4.5784,4.5932,4.6094,4.6271,4.6458,4.665,4.6839,4.7017,4.7177,4.7311,4.7417,4.7494,4.7543,4.7571,4.7583,4.7589,4.7598,4.7618,4.7653,4.7709,4.7784,4.7876,4.7981,4.8093,4.8203,4.8306,4.8397,4.8473,4.8533,4.8582,4.8622,4.8661,4.8705,4.876,4.8831,4.892,4.9026,4.9145,4.9269,4.9391,4.95,4.9588,4.9645,4.9666,4.9648,4.9592,4.9502,4.9386,4.9251,4.9108,4.8966,4.8833,4.8715,4.8614,4.8531,4.8462,4.8403,4.8347,4.8289,4.8222,4.8145,4.8055,4.7955,4.7849,4.7742,4.7641,4.7554,4.7486,4.7441,4.7419,4.7419,4.7435,4.7461,4.7488,4.7507,4.751,4.7491,4.7446,4.7375,4.7282,4.717,4.7049,4.6928,4.6813,4.6714,4.6635,4.6578,4.6542,4.6525,4.652,4.652,4.6519,4.651,4.6488,4.6451,4.6401,4.634,4.6275,4.6213,4.6161,4.6127,4.6115,4.6128,4.6168,4.6229,4.6309,4.6398,4.649,4.6577,4.6653,4.6714,4.676,4.6792,4.6816,4.6839,4.6869,4.6913,4.698,4.7073,4.7194,4.7343,4.7516,4.7704,4.7902,4.8098,4.8286,4.8458,4.8611,4.8742,4.8853,4.8949,4.9035,4.9117,4.9203,4.9296,4.94,4.9516,4.964,4.9766,4.9889,5,5.0091,5.0156,5.0189,5.0189,5.0159,5.0102,5.0027,4.9941,4.9854,4.9775,4.9711,4.9665,4.9639,4.9631,4.9636,4.9647,4.9655,4.9654,4.9636,4.9597,4.9536,4.9456,4.9362,4.926,4.9161,4.9074,4.9008,4.8969,4.8962,4.8989,4.9046,4.9129,4.9233,4.9348,4.9468,4.9587,4.97,4.9805,4.9904,5,5.0096,5.0198,5.031,5.0435,5.0573,5.0722,5.0876,5.1028,5.1169,5.1286,5.1372,5.1416,5.1414,5.1361,5.126,5.1115,5.0931,5.0718,5.0486,5.0243,4.9997,4.9754,4.9515,4.9281,4.9049,4.8814,4.857,4.8312,4.8037,4.7744,4.7433,4.7109,4.6779,4.6453,4.6141,4.5854,4.5599,4.5386,4.5217,4.5094,4.5015,4.4974,4.4964,4.4979,4.5009,4.505,4.5096,4.5147,4.5202,4.5265,4.5342,4.5437,4.5555,4.57,4.5874,4.6075,4.6298,4.6537,4.6782,4.7024,4.7252,4.7458,4.7635,4.778,4.7893,4.7976,4.8036,4.8078,4.8112,4.8145,4.8184,4.8231,4.8289,4.8355,4.8426,4.8495,4.8555,4.8599,4.8623,4.8624,4.86,4.8556,4.8496,4.8429,4.8365,4.8314,4.8286,4.8291,4.8336,4.8425,4.8562,4.8748,4.8983,4.9267,4.9602,4.9988,5.0431,5.0937,5.1514,5.2171,5.2917,5.3759,5.4705,5.5755,5.6906,5.8151,5.9474,6.0857,6.2273,6.3695,6.5091,6.6426,6.7667,6.878,6.9732,7.0492,7.1032,7.1324,7.1344,7.1069,7.0478,6.9553,6.8279,6.6644,6.4643,6.2277,5.9556,5.6501,5.314,4.9515,4.5678,4.1692,3.7625,3.3553,2.9555,2.5708,2.2087,1.876,1.5787,1.3216,1.1084,0.94166,0.82248,0.75097,0.72619,0.74632,0.80883,0.9106,1.048,1.2172,1.4139,1.6336,1.8717,2.1234,2.3836,2.6475,2.9102,3.1669,3.4133,3.6455,3.8601,4.0545,4.2271,4.377,4.5042,4.6095,4.6944,4.761,4.8115,4.8487,4.8751,4.893,4.9047,4.9119,4.916,4.9181,4.919,4.9194,4.9197,4.9205,4.9222,4.9255,4.931,4.9393,4.9511,4.9669,4.9869,5.0111,5.0393,5.0709,5.1048,5.1401,5.1754,5.2096,5.2414,5.2702,5.2952,5.3164,5.334,5.3483,5.3603,5.3709,5.3809,5.3913,5.4026,5.4153,5.4295,5.445,5.4613,5.478,5.4944,5.51,5.5245,5.5377,5.5497,5.5608,5.5716,5.5828,5.595,5.6088,5.6246,5.6427,5.6627,5.6844,5.7071,5.7299,5.7519,5.7722,5.7903,5.8055,5.8178,5.8273,5.8346,5.8402,5.8451,5.85,5.8556,5.8626,5.871,5.8809,5.8919,5.9032,5.9141,5.9236,5.9309,5.9354,5.9366,5.9345,5.9292,5.9214,5.9116,5.9009,5.8899,5.8795,5.8701,5.8621,5.8555,5.8498,5.8448,5.8397,5.8339,5.8269,5.8183,5.8079,5.7958,5.7826,5.7688,5.7552,5.7426,5.7317,5.723,5.7169,5.7134,5.7122,5.7127,5.7142,5.7159,5.7169,5.7165,5.7144,5.7104,5.7045,5.6972,5.6892,5.6811,5.6737,5.6676,5.6634,5.6611,5.6608,5.662,5.6641,5.6665,5.6682,5.6688,5.6675,5.6643,5.659,5.6521,5.6442,5.6359,5.6283,5.6222,5.6182,5.6169,5.6185,5.6229,5.6297,5.6382,5.6478,5.6575,5.6666,5.6744,5.6806,5.6851,5.688,5.6896,5.6905,5.6913,5.6924,5.6944,5.6973,5.7011,5.7054,5.7097,5.7133,5.7152,5.7147,5.7113,5.7044,5.6939,5.6801,5.6632,5.6441,5.6234,5.6019,5.5803,5.5591,5.5384,5.5181,5.4979,5.4772,5.4551,5.4309,5.4037,5.3731,5.3387,5.3004,5.2586,5.2138,5.1669,5.1187,5.07,5.0218,4.9746,4.9288,4.8844,4.8412,4.7988,4.7567,4.7143,4.6712,4.6268,4.5813,4.5347,4.4874,4.4402,4.3938,4.3491,4.3067,4.2673,4.2313,4.1987,4.1693,4.1425,4.1177,4.0942,4.0712,4.048,4.0243,3.9998,3.9747,3.9494,3.9244,3.9006,3.8785,3.8588,3.8418,3.8278,3.8165,3.8076,3.8005,3.7942,3.7881,3.7815,3.7737,3.7645,3.754,3.7424,3.7304,3.7188,3.7084,3.7002,3.6948,3.6928,3.6944,3.6995,3.7078,3.7188,3.7316,3.7455,3.7597,3.7739,3.7875,3.8006,3.8134,3.8261,3.8395,3.8538,3.8698,3.8875,3.9071,3.9285,3.951,3.9739,3.9965,4.0178,4.0369,4.0532,4.0664,4.0763,4.0832,4.0877,4.0906,4.0931,4.096,4.1002,4.1066,4.1155,4.127,4.1409,4.1567,4.1738,4.1912,4.2084,4.2245,4.239,4.2519,4.263,4.2726,4.2812,4.2892,4.2972,4.3055,4.3143,4.3236,4.333,4.342,4.3499,4.356,4.3594,4.3596,4.3563,4.3493,4.3389,4.3258,4.3107,4.2946,4.2786,4.2635,4.2502,4.2391,4.2306,4.2245,4.2204,4.2178,4.2161,4.2146,4.2127,4.2101,4.2067,4.2027,4.1986,4.195,4.1925,4.1921,4.1941,4.1991,4.2072,4.2182,4.2316,4.2468,4.2628,4.2789,4.2943,4.3083,4.3206,4.3312,4.3403,4.3484,4.3562,4.3644,4.3738,4.3848,4.3978,4.4128,4.4295,4.4472,4.4653,4.4829,4.499,4.513,4.5242,4.5325,4.538,4.541,4.5423,4.5427,4.5432,4.5445,4.5474,4.5525,4.5597,4.5691,4.5802,4.5924,4.6048,4.6168,4.6278,4.6372,4.645,4.6511,4.6561,4.6605,4.665,4.6702,4.6768,4.6853,4.6959,4.7084,4.7226,4.7378,4.7535,4.7687,4.783,4.7958,4.8068,4.8161,4.824,4.831,4.8378,4.8453,4.8541,4.8648,4.8777,4.893,4.9102,4.929,4.9485,4.9679,4.9863,5.0028,5.0169,5.0282,5.0367,5.0426,5.0465,5.0489,5.0507,5.0523,5.0543,5.0571,5.0605,5.0643,5.0681,5.0712,5.0728,5.0722,5.0691,5.063,5.054,5.0425,5.029,5.0144,4.9995,4.9854,4.9727,4.9622,4.9539,4.948,4.944,4.9414,4.9393,4.9368,4.9332,4.9279,4.9203,4.9104,4.8983,4.8845,4.8695,4.8542,4.8393,4.8253,4.8129,4.8023,4.7934,4.7861,4.7799,4.7744,4.7689,4.7631,4.7568,4.7499,4.7426,4.7354,4.729,4.7241,4.7215,4.7217,4.7253,4.7323,4.7425,4.7554,4.7703,4.7861,4.8018,4.8163,4.8287,4.8384,4.845,4.8485,4.8493,4.8479,4.8451,4.8418,4.8387,4.8364,4.8353,4.8356,4.8371,4.8395,4.8421,4.8443,4.8456,4.8454,4.8436,4.8401,4.8351,4.8292,4.8231,4.8173,4.8127,4.8098,4.8088,4.81,4.813,4.8174,4.8225,4.8274,4.8315,4.8339,4.8341,4.832,4.8276,4.8213,4.8136,4.8054,4.7974,4.7904,4.785,4.7815,4.7798,4.7799,4.7811,4.7827,4.7839,4.784,4.7824,4.7787,4.7727,4.7647,4.7552,4.7449,4.7347,4.7254,4.7178,4.7126,4.7101,4.7103,4.713,4.7178,4.7239,4.7306,4.7371,4.7428,4.7475,4.7508,4.7529,4.7543,4.7556,4.7572,4.76,4.7645,4.7708,4.7792,4.7893,4.8007,4.8127,4.8245,4.8352,4.8442,4.8508,4.8549,4.8566,4.856,4.8539,4.8508,4.8478,4.8454,4.8442,4.8447,4.8469,4.8505,4.8553,4.8604,4.8652,4.8689,4.8711,4.8713,4.8695,4.8658,4.8607,4.855,4.8495,4.8449,4.842,4.8414,4.8434,4.8479,4.8547,4.8632,4.8728,4.8827,4.8922,4.9006,4.9075,4.913,4.9169,4.9198,4.9221,4.9245,4.9274,4.9314,4.9366,4.9431,4.9506,4.9584,4.966,4.9726,4.9773,4.9796,4.9791,4.9757,4.9695,4.9611,4.9511,4.9405,4.9301,4.9207,4.9131,4.9076,4.9043,4.903,4.9032,4.9044,4.9057,4.9064,4.906,4.904,4.9003,4.8952,4.889,4.8825,4.8763,4.8714,4.8683,4.8676,4.8696,4.8741,4.8808,4.8892,4.8984,4.9077,4.9163,4.9235,4.9291,4.933,4.9352,4.9363,4.9369,4.9376,4.9391,4.942,4.9465,4.9528,4.9605,4.9692,4.9783,4.987,4.9946,5.0005,5.0043,5.0059,5.0055,5.0037,5.0011,4.9987,4.9972,4.9976,5.0003,5.0057,5.0136,5.0236,5.0351,5.047,5.0585,5.0683,5.0758,5.0803,5.0814,5.0792,5.074,5.0666,5.0577,5.0481,5.0388,5.0304,5.0233,5.0177,5.0135,5.0104,5.0079,5.0055,5.0026,4.9987,4.9939,4.9881,4.9816,4.9752,4.9695,4.9654,4.9637,4.965,4.9697,4.9781,4.9898,5.0045,5.0214,5.0398,5.0586,5.0771,5.0947,5.1108,5.1254,5.1386,5.1506,5.162,5.1732,5.1847,5.1968,5.2096,5.2227,5.2358,5.248,5.2586,5.2665,5.2709,5.2712,5.2668,5.2577,5.2442,5.2267,5.206,5.1832,5.1591,5.1347,5.1108,5.0877,5.0658,5.0449,5.0247,5.0046,4.9841,4.9626,4.9398,4.9154,4.8897,4.8628,4.8354,4.8083,4.7822,4.7578,4.7358,4.7166,4.7002,4.6866,4.6751,4.6653,4.6564,4.6476,4.6385,4.6286,4.6179,4.6064,4.5947,4.5835,4.5736,4.5659,4.5612,4.5599,4.5625,4.5688,4.5787,4.5914,4.6061,4.6219,4.6378,4.6532,4.6672,4.6798,4.6906,4.7002,4.7087,4.717,4.7255,4.7348,4.7454,4.7574,4.7707,4.7849,4.7995,4.8138,4.8271,4.8388,4.8483,4.8555,4.8604,4.8633,4.8647,4.8655,4.8665,4.8684,4.872,4.8778,4.8861,4.897,4.9101,4.9253,4.9422,4.9605,4.9801,5.0012,5.0241,5.0496,5.0789,5.1131,5.1536,5.2018,5.2587,5.3251,5.4017,5.4881,5.584,5.6883,5.7996,5.9161,6.0359,6.157,6.2772,6.3945,6.5069,6.6123,6.709,6.7948,6.8677,6.9253,6.9654,6.9852,6.9819,6.9529,6.8955,6.8072,6.6861,6.531,6.3413,6.1176,5.8614,5.5753,5.2629,4.9288,4.5783,4.2172,3.8517,3.4883,3.1332,2.7923,2.4712,2.1748,1.9075,1.6729,1.4741,1.3133,1.1921,1.1114,1.0716,1.0721,1.1119,1.1891,1.3009,1.4442,1.6148,1.8082,2.0194,2.2431,2.4739,2.7065,2.9362,3.1585,3.3699,3.5675,3.7493,3.9142,4.0616,4.192,4.306,4.4046,4.4893,4.5611,4.6216,4.6717,4.7127,4.7454,4.7709,4.79,4.8037,4.8132,4.8196,4.8243,4.8287,4.8342,4.8419,4.8529,4.8679,4.8872,4.9108,4.9382,4.9683,5.0002,5.0324,5.0637,5.0929,5.119,5.1413,5.1596,5.1741,5.1851,5.1933,5.1997,5.2051,5.2103,5.2158,5.2222,5.2295,5.2376,5.2462,5.2551,5.2639,5.2723,5.2804,5.2882,5.2963,5.3051,5.3156,5.3285,5.3445,5.364,5.3875,5.4148,5.4454,5.4786,5.5133,5.5484,5.5825,5.6146,5.6437,5.6691,5.6905,5.7079,5.7217,5.7324,5.741,5.748,5.7544,5.7606,5.767,5.7736,5.7801,5.7863,5.7916,5.7955,5.7975,5.7973,5.795,5.7906,5.7848,5.7783,5.7717,5.766,5.7618,5.7598,5.7602,5.7629,5.7676,5.7737,5.7804,5.7868,5.792,5.7954,5.7965,5.795,5.7909,5.7848,5.7773,5.769,5.7608,5.7535,5.7476,5.7436,5.7415,5.7412,5.7424,5.7445,5.747,5.7492,5.7509,5.7517,5.7517,5.7511,5.7504,5.7501,5.7508,5.7532,5.7577,5.7644,5.7732,5.7839,5.7958,5.8081,5.82,5.8307,5.8394,5.8456,5.8491,5.8502,5.849,5.8463,5.843,5.8397,5.8374,5.8366,5.8377,5.8408,5.8456,5.8517,5.8584,5.8649,5.8704,5.8742,5.8758,5.8749,5.8716,5.8661,5.8589,5.8506,5.8416,5.8326,5.8239,5.8154,5.8072,5.7988,5.7897,5.7792,5.7667,5.7515,5.7335,5.7124,5.6886,5.6625,5.6349,5.6066,5.5786,5.5517,5.5265,5.5035,5.4827,5.4638,5.4462,5.4292,5.4118,5.3931,5.3721,5.3482,5.321,5.2903,5.2563,5.2195,5.1805,5.1398,5.0981,5.056,5.0137,4.9714,4.9288,4.8855,4.8412,4.7951,4.7469,4.6962,4.6429,4.5872,4.5296,4.471,4.4122,4.3544,4.2987,4.2459,4.1968,4.1517,4.1109,4.074,4.0405,4.0098,3.9811,3.9535,3.9265,3.8996,3.8726,3.8457,3.8191,3.7934,3.7692,3.747,3.7273,3.7104,3.6963,3.685,3.6758,3.6684,3.6619,3.6559,3.6497,3.643,3.6359,3.6284,3.6211,3.6147,3.6098,3.6073,3.6076,3.6112,3.6183,3.6285,3.6413,3.6559,3.6714,3.6866,3.7006,3.7126,3.7219,3.7285,3.7322,3.7337,3.7337,3.7329,3.7325,3.7331,3.7357,3.7406,3.7479,3.7576,3.7692,3.7822,3.7958,3.8093,3.8221,3.834,3.8446,3.8542,3.8631,3.8717,3.8807,3.8906,3.9018,3.9144,3.9283,3.9432,3.9583,3.9729,3.9859,3.9966,4.004,4.0077,4.0074,4.0034,3.9961,3.9863,3.9749,3.9631,3.9519,3.9421,3.9344,3.9292,3.9264,3.9258,3.9269,3.929,3.9313,3.9334,3.9345,3.9346,3.9335,3.9314,3.9287,3.9259,3.9235,3.9218,3.921,3.9212,3.9221,3.9233,3.924,3.9236,3.9214,3.9167,3.9093,3.8991,3.8864,3.8718,3.8562,3.8407,3.8265,3.8147,3.8062,3.8019,3.802,3.8066,3.8154,3.8277,3.8429,3.8599,3.8781,3.8966,3.9151,3.9333,3.9512,3.9691,3.9873,4.0063,4.0263,4.0477,4.0704,4.0941,4.1185,4.1427,4.166,4.1875,4.2065,4.2223,4.2347,4.2438,4.2498,4.2534,4.2557,4.2575,4.2599,4.2638,4.2699,4.2787,4.2901,4.3039,4.3195,4.3363,4.3534,4.37,4.3856,4.3998,4.4124,4.4237,4.4342,4.4444,4.4552,4.4672,4.481,4.497,4.5152,4.5354,4.5572,4.5798,4.6023,4.6239,4.6438,4.6614,4.6763,4.6885,4.6983,4.7062,4.7127,4.7187,4.7247,4.7314,4.7389,4.7475,4.7568,4.7664,4.7758,4.7842,4.7911,4.7959,4.7984,4.7987,4.797,4.794,4.7903,4.7871,4.7851,4.7851,4.7877,4.7932,4.8015,4.8122,4.8246,4.8379,4.8511,4.8632,4.8736,4.8815,4.8868,4.8895,4.8898,4.8881,4.8852,4.8816,4.8779,4.8744,4.8712,4.8683,4.8654,4.8619,4.8574,4.8512,4.8431,4.8328,4.8203,4.806,4.7905,4.7746,4.7591,4.745,4.733,4.7239,4.7177,4.7145,4.714,4.7154,4.718,4.7207,4.7227,4.7231,4.7215,4.7174,4.7111,4.7027,4.693,4.6827,4.6726,4.6633,4.6554,4.6492,4.6447,4.6416,4.6393,4.6371,4.6341,4.6298,4.6235,4.6147,4.6036,4.5902,4.575,4.5587,4.542,4.5258,4.5105,4.4966,4.4842,4.4733,4.4633,4.4537,4.4438,4.4328,4.4202,4.4055,4.3886,4.3696,4.3491,4.3277,4.3063,4.2858,4.267,4.2505,4.2369,4.226,4.2179,4.2119,4.2074,4.2036,4.1998,4.1953,4.1896,4.1825,4.1742,4.165,4.1555,4.1463,4.1382,4.1318,4.1275,4.1255,4.1258,4.128,4.1317,4.136,4.1404,4.1442,4.147,4.1485,4.1488,4.1484,4.1478,4.1477,4.1491,4.1528,4.1592,4.1688,4.1817,4.1976,4.2159,4.2358,4.2565,4.277,4.2965,4.3144,4.3302,4.344,4.3559,4.3665,4.3763,4.3861,4.3966,4.4083,4.4214,4.436,4.4518,4.4682,4.4847,4.5005,4.5148,4.5271,4.5371,4.5447,4.5501,4.5538,4.5567,4.5595,4.563,4.568,4.5751,4.5844,4.5959,4.6091,4.6234,4.6379,4.6519,4.6643,4.6745,4.6822,4.6871,4.6894,4.6895,4.6882,4.686,4.6838,4.6822,4.6815,4.6818,4.6831,4.6849,4.6864,4.687,4.6859,4.6823,4.6758,4.6661,4.6534,4.638,4.6206,4.6022,4.5835,4.5656,4.5491,4.5346,4.5224,4.5123,4.5041,4.4972,4.4909,4.4846,4.4778,4.4699,4.4609,4.4508,4.44,4.4288,4.418,4.4082,4.3997,4.3928,4.3877,4.384,4.3814,4.379,4.3762,4.3721,4.3662,4.3578,4.3468,4.3334,4.3179,4.3011,4.2839,4.2673,4.2521,4.2393,4.2294,4.2225,4.2188,4.2178,4.2189,4.2213,4.2243,4.2271,4.2291,4.2302,4.2302,4.2294,4.2284,4.2277,4.2281,4.2301,4.2342,4.2407,4.2494,4.26,4.2719,4.2842,4.2961,4.3069,4.3157,4.3224,4.3266,4.3288,4.3293,4.3289,4.3285,4.329,4.3312,4.3358,4.3432,4.3533,4.366,4.3807,4.3969,4.4137,4.4305,4.4466,4.4616,4.4755,4.4884,4.5007,4.5129,4.5259,4.5402,4.5564,4.5749,4.5959,4.6193,4.6445,4.671,4.6981,4.725,4.7511,4.7758,4.7988,4.8202,4.8402,4.859,4.8772,4.8954,4.9139,4.9329,4.9523,4.9719,4.991,5.0088,5.0241,5.0361,5.0436,5.0461,5.043,5.0341,5.0198,5.0007,4.9777,4.9517,4.924,4.8954,4.8668,4.8387,4.8114,4.7848,4.7584,4.7318,4.7044,4.6754,4.6446,4.6116,4.5766,4.5399,4.5021,4.4639,4.4263,4.39,4.3559,4.3243,4.2954,4.2694,4.2457,4.2239,4.2033,4.1833,4.1633,4.143,4.1222,4.1011,4.0802,4.0601,4.0416,4.0256,4.0129,4.0039,3.9991,3.9983,4.0014,4.0077,4.0164,4.0267,4.0377,4.0486,4.0591,4.0687,4.0776,4.0862,4.0949,4.1044,4.1155,4.1287,4.1445,4.1629,4.1839,4.207,4.2315,4.2567,4.2816,4.3054,4.3276,4.3478,4.3658,4.3818,4.3965,4.4104,4.4245,4.4395,4.4562,4.4752,4.4969,4.5214,4.5488,4.5788,4.6112,4.6457,4.6823,4.721,4.7623,4.8066,4.8548,4.9079,4.9669,5.0328,5.1062,5.1877,5.2772,5.3744,5.4784,5.5879,5.7011,5.816,5.9306,6.0427,6.15,6.2505,6.3422,6.4234,6.4923,6.5472,6.5863,6.608,6.6103,6.5911,6.5484,6.4801,6.3843,6.2593,6.1039,5.9175,5.7004,5.4536,5.1791,4.88,4.5603,4.2245,3.8782,3.5269,3.1766,2.8332,2.5024,2.1893,1.8988,1.635,1.4012,1.2003,1.0344,0.90513,0.8133,0.7593,0.74294,0.76341,0.81933,0.90868,1.0288,1.1764,1.3476,1.538,1.7429,1.9571,2.1757,2.3937,2.6066,2.8104,3.0018,3.1784,3.3385,3.4813,3.607,3.716,3.8095,3.889,3.9561,4.0124,4.0595,4.0987,4.1311,4.1577,4.1793,4.1966,4.2102,4.2209,4.2295,4.2369,4.2441,4.2519,4.2614,4.2732,4.2878,4.3055,4.326,4.349,4.3736,4.3989,4.4238,4.4472,4.4682,4.4862,4.5008,4.512,4.5201,4.5258,4.53,4.5335,4.5373,4.5421,4.5486,4.5571,4.5675,4.5796,4.5931,4.6074,4.6219,4.6364,4.6504,4.6642,4.6778,4.6918,4.7068,4.7237,4.7429,4.7651,4.7907,4.8196,4.8514,4.8857,4.9215,4.9578,4.9936,5.0278,5.0595,5.0883,5.1139,5.1363,5.1559,5.1731,5.1887,5.2031,5.2169,5.2304,5.2437,5.2564,5.2681,5.2781,5.2858,5.2903,5.2911,5.2879,5.2804,5.269,5.2542,5.2368,5.2177,5.1979,5.1783,5.1597,5.1426,5.1274,5.114,5.1021,5.0913,5.0812,5.0711,5.0608,5.05,5.0389,5.0276,5.0167,5.0069,4.9989,4.9935,4.9911,4.9921,4.9966,5.0043,5.0146,5.0268,5.0398,5.0527,5.0645,5.0745,5.0822,5.0873,5.09,5.0907,5.0899,5.0885,5.087,5.0863,5.0866,5.0883,5.0913,5.0953,5.0997,5.1041,5.1079,5.1106,5.1119,5.1118,5.1107,5.109,5.1074,5.1068,5.1081,5.1118,5.1185,5.1283,5.1412,5.1566,5.1736,5.1913,5.2086,5.2244,5.2377,5.2478,5.2542,5.2569,5.2562,5.2524,5.2464,5.2388,5.2303,5.2215,5.2127,5.2041,5.1954,5.1864,5.1765,5.1653,5.1523,5.1372,5.1199,5.1005,5.0796,5.0577,5.0356,5.0141,4.9937,4.9751,4.9582,4.9429,4.9288,4.9149,4.9001,4.8832,4.8629,4.8382,4.8082,4.7723,4.7303,4.6825,4.6294,4.5717,4.5104,4.4465,4.3809,4.3143,4.2473,4.1801,4.1128,4.0453,3.9775,3.9091,3.8401,3.7705,3.7007,3.6313,3.563,3.4966,3.4332,3.3735,3.3183,3.2681,3.2229,3.1826,3.1467,3.1143,3.0846,3.0566,3.0292,3.0018,2.9738,2.9451,2.9158,2.8864,2.8575,2.8299,2.8044,2.7817,2.7623,2.7464,2.7341,2.725,2.7186,2.7144,2.7116,2.7096,2.7082,2.7071,2.7064,2.7066,2.708,2.7116,2.7179,2.7276,2.7413,2.7589,2.7806,2.8057,2.8336,2.8634,2.8941,2.9247,2.9542,2.9822,3.0082,3.0321,3.0542,3.0748,3.0946,3.1142,3.1341,3.1547,3.176,3.198,3.2201,3.2418,3.2623,3.2807,3.2963,3.3087,3.3175,3.3228,3.3249,3.3244,3.3221,3.319,3.3159,3.3134,3.3122,3.3124,3.314,3.3166,3.3197,3.3226,3.3246,3.3251,3.3235,3.3199,3.3141,3.3065,3.2976,3.288,3.2783,3.269,3.2605,3.2529,3.2459,3.239,3.2317,3.223,3.2121,3.1982,3.1808,3.1595,3.1343,3.1056,3.0741,3.0407,3.0064,2.9724,2.9397,2.9091,2.8812,2.8564,2.8346,2.8158,2.7994,2.785,2.7722,2.7607,2.7505,2.7416,2.7345,2.7297,2.7279,2.7299,2.7363,2.7476,2.7639,2.7852,2.8109,2.8404,2.8726,2.9063,2.9406,2.9742,3.0066,3.0371,3.0657,3.0924,3.1178,3.1424,3.1671,3.1924,3.219,3.2473,3.2772,3.3087,3.3412,3.3742,3.407,3.439,3.4695,3.4983,3.5253,3.5506,3.5747,3.5982,3.6218,3.6461,3.6716,3.6986,3.7271,3.7568,3.7871,3.8171,3.8457,3.872,3.895,3.9138,3.9282,3.9378,3.943,3.9441,3.9421,3.9378,3.9321,3.9259,3.9198,3.9142,3.9092,3.9048,3.9005,3.8959,3.8906,3.884,3.8761,3.8667,3.8563,3.8453,3.8345,3.8247,3.8168,3.8116,3.8095,3.811,3.8157,3.8234,3.8334,3.8447,3.8565,3.8676,3.8774,3.8851,3.8906,3.8938,3.895,3.8947,3.8937,3.8926,3.892,3.8924,3.894,3.8969,3.9007,3.905,3.9093,3.9128,3.9152,3.9162,3.9155,3.9134,3.9103,3.907,3.9043,3.9029,3.9037,3.9074,3.9142,3.9242,3.9372,3.9525,3.9694,3.9869,4.004,4.0198,4.0336,4.0449,4.0536,4.0598,4.0639,4.0665,4.0682,4.0697,4.0714,4.0737,4.0768,4.0804,4.0843,4.0879,4.0907,4.0923,4.0924,4.0908,4.0877,4.0835,4.0789,4.0747,4.0716,4.0707,4.0724,4.0772,4.0851,4.0959,4.1089,4.1233,4.138,4.152,4.1641,4.1735,4.1795,4.1819,4.1806,4.176,4.1685,4.1589,4.1478,4.1359,4.1235,4.1109,4.0981,4.0848,4.0706,4.0548,4.0369,4.0166,3.9936,3.9678,3.9396,3.9096,3.8784,3.8471,3.8164,3.7873,3.7603,3.7359,3.714,3.6945,3.6767,3.6602,3.644,3.6276,3.6102,3.5916,3.5717,3.5507,3.5292,3.508,3.4878,3.4695,3.454,3.4417,3.433,3.4279,3.426,3.4268,3.4296,3.4334,3.4375,3.4413,3.4443,3.4465,3.4478,3.4487,3.4498,3.4515,3.4547,3.4597,3.4668,3.4761,3.4875,3.5003,3.514,3.528,3.5414,3.5536,3.5643,3.5734,3.5809,3.5873,3.5931,3.5992,3.6062,3.6148,3.6257,3.6388,3.6543,3.6718,3.6905,3.7097,3.7286,3.7461,3.7616,3.7746,3.7848,3.7923,3.7976,3.8011,3.8037,3.806,3.8089,3.8127,3.8178,3.8241,3.8313,3.8391,3.8467,3.8536,3.8593,3.8632,3.8654,3.866,3.8653,3.8641,3.863,3.863,3.8647,3.8687,3.8752,3.8842,3.8954,3.908,3.9212,3.9339,3.9452,3.954,3.9598,3.9621,3.9609,3.9563,3.9491,3.9399,3.9294,3.9186,3.908,3.8982,3.8894,3.8813,3.8738,3.8664,3.8584,3.8494,3.8388,3.8265,3.8123,3.7968,3.7803,3.7635,3.7472,3.7323,3.7192,3.7086,3.7003,3.6944,3.6904,3.6875,3.6849,3.6817,3.6772,3.6708,3.6621,3.6511,3.6383,3.6243,3.6098,3.596,3.5837,3.5739,3.5673,3.5642,3.5648,3.5689,3.576,3.5855,3.5967,3.609,3.6219,3.6349,3.648,3.6613,3.6751,3.6898,3.7057,3.7231,3.7423,3.7631,3.7851,3.8077,3.8299,3.8509,3.8695,3.8849,3.8963,3.9032,3.9056,3.9036,3.8979,3.8892,3.8785,3.8668,3.8547,3.843,3.832,3.8216,3.8114,3.801,3.7894,3.7758,3.7594,3.7397,3.7162,3.6889,3.6581,3.6246,3.5891,3.5528,3.5166,3.4816,3.4487,3.4183,3.391,3.3666,3.3452,3.3265,3.3102,3.296,3.2838,3.2736,3.2657,3.2605,3.2585,3.2603,3.2663,3.2769,3.2921,3.3116,3.3349,3.3609,3.3886,3.4165,3.4432,3.4675,3.4881,3.5043,3.5155,3.5217,3.5233,3.5206,3.5147,3.5063,3.4963,3.4855,3.4745,3.4634,3.4523,3.4411,3.4295,3.4171,3.4036,3.3889,3.3732,3.3567,3.3402,3.3244,3.3104,3.2992,3.2918,3.2889,3.2912,3.2989,3.3121,3.3303,3.3532,3.3802,3.4107,3.4445,3.4812,3.521,3.5643,3.6118,3.6644,3.7231,3.7888,3.8623,3.9441,4.0342,4.1323,4.2375,4.3484,4.4633,4.5801,4.6967,4.8105,4.9193,5.0208,5.1129,5.1933,5.2603,5.3118,5.3461,5.361,5.3547,5.3251,5.2701,5.1879,5.0766,4.9348,4.7618,4.5575,4.3227,4.0591,3.7694,3.4576,3.1283,2.787,2.4398,2.0929,1.753,1.4261,1.1182,0.83454,0.57957,0.35705,0.16991,0.020242,-0.090621,-0.16205,-0.19406,-0.18727,-0.14284,-0.062496,0.051522,0.19642,0.36889,0.56509,0.78071,1.0111,1.2513,1.4963,1.741,1.9809,2.2116,2.4294,2.6315,2.8157,2.9808,3.1262,3.2523,3.3599,3.4502,3.5249,3.5855,3.6336,3.6709,3.6986,3.718,3.73,3.7355,3.7354,3.7306,3.7221,3.711,3.6984,3.6856,3.6736,3.6638,3.6568,3.6534,3.6539,3.6582,3.6658,3.676,3.6878,3.7002,3.7121,3.7225,3.7309,3.7367,3.7402,3.7414,3.7411,3.7401,3.7393,3.7395,3.7414,3.7456,3.7523,3.7615,3.7727,3.7855,3.7993,3.8135,3.8275,3.8409,3.8536,3.8657,3.8775,3.8894,3.9021,3.916,3.9315,3.9488,3.9679,3.9885,4.0099,4.0314,4.052,4.0708,4.0869,4.0999,4.1092,4.1149,4.1172,4.1166,4.114,4.1101,4.1057,4.1016,4.0981,4.0955,4.0938,4.0924,4.0909,4.0886,4.0849,4.079,4.0707,4.0598,4.0465,4.0311,4.0146,3.9975,3.981,3.9657,3.9523,3.9413,3.9327,3.9263,3.9217,3.9183,3.9152,3.9118,3.9076,3.9021,3.8952,3.8872,3.8786,3.8701,3.8623,3.8562,3.8524,3.8514,3.8535,3.8585,3.8661,3.8757,3.8867,3.8981,3.9093,3.9198,3.9291,3.9373,3.9445,3.9512,3.9581,3.9659,3.9752,3.9866,4.0004,4.0167,4.0351,4.0552,4.0762,4.0974,4.1179,4.137,4.1543,4.1696,4.1831,4.1951,4.2065,4.218,4.2305,4.2448,4.2616,4.2811,4.3033,4.328,4.3543,4.3815,4.4084,4.4342,4.458,4.479,4.497,4.5119,4.5239,4.5337,4.5419,4.5493,4.5565,4.5641,4.5723,4.5811,4.5902,4.5989,4.6066,4.6125,4.6156,4.6154,4.6114,4.6035,4.5916,4.5763,4.5581,4.5376,4.5154,4.492,4.4679,4.4431,4.4173,4.3902,4.361,4.3289,4.2932,4.2531,4.208,4.1578,4.1024,4.0423,3.978,3.9104,3.8403,3.7687,3.6964,3.6239,3.5517,3.4799,3.4084,3.3369,3.2652,3.1929,3.1199,3.0463,2.9722,2.8982,2.825,2.7535,2.6846,2.619,2.5575,2.5006,2.4483,2.4003,2.3563,2.3154,2.2767,2.2393,2.2022,2.1649,2.1268,2.0879,2.0483,2.0087,1.9697,1.9322,1.897,1.8649,1.8364,1.8118,1.7911,1.774,1.7599,1.7482,1.7382,1.7293,1.7209,1.7128,1.7051,1.6979,1.6919,1.6876,1.6857,1.6867,1.6912,1.6992,1.7108,1.7255,1.7428,1.762,1.7823,1.803,1.8235,1.8434,1.8625,1.8812,1.8999,1.9191,1.9396,1.9622,1.9873,2.0153,2.0463,2.0801,2.116,2.1534,2.1913,2.2287,2.2648,2.2989,2.3306,2.3598,2.3866,2.4117,2.4356,2.459,2.4828,2.5075,2.5334,2.5607,2.5891,2.6181,2.647,2.675,2.7012,2.725,2.7456,2.763,2.777,2.7881,2.7969,2.804,2.8102,2.8164,2.8231,2.8307,2.8392,2.8484,2.8578,2.8667,2.8742,2.8796,2.8821,2.8814,2.8772,2.8696,2.8589,2.8457,2.8308,2.8148,2.7984,2.7822,2.7663,2.7509,2.7357,2.7203,2.704,2.6863,2.6667,2.6449,2.6207,2.5944,2.5664,2.5375,2.5086,2.4806,2.4544,2.4309,2.4105,2.3934,2.3797,2.3689,2.3605,2.3539,2.3482,2.3429,2.3375,2.3317,2.3258,2.32,2.3148,2.3109,2.3092,2.3101,2.3141,2.3215,2.3321,2.3455,2.3611,2.378,2.3952,2.4118,2.427,2.4402,2.4512,2.4599,2.4669,2.4726,2.4778,2.4833,2.4897,2.4977,2.5074,2.519,2.532,2.546,2.5603,2.5742,2.5869,2.598,2.607,2.6139,2.619,2.6227,2.6257,2.6287,2.6325,2.6376,2.6444,2.6531,2.6633,2.6746,2.6864,2.6979,2.7082,2.7167,2.723,2.7268,2.7282,2.7277,2.726,2.7238,2.7219,2.7212,2.7224,2.7257,2.7313,2.7389,2.748,2.7579,2.7679,2.7771,2.7849,2.7908,2.7947,2.7967,2.7971,2.7966,2.7958,2.7956,2.7964,2.7989,2.8031,2.8091,2.8163,2.8243,2.8324,2.8396,2.8452,2.8487,2.8496,2.848,2.844,2.838,2.8307,2.8229,2.8153,2.8085,2.803,2.7988,2.7959,2.7938,2.792,2.7898,2.7865,2.7815,2.7744,2.7652,2.7539,2.741,2.7272,2.7135,2.7005,2.6893,2.6804,2.6743,2.6711,2.6707,2.6725,2.6762,2.6808,2.6858,2.6906,2.6949,2.6984,2.7014,2.7043,2.7078,2.7124,2.7189,2.7278,2.7396,2.7544,2.7719,2.7916,2.8129,2.8348,2.8565,2.8769,2.8954,2.9116,2.9251,2.936,2.9449,2.9521,2.9584,2.9643,2.9706,2.9774,2.985,2.993,3.0011,3.0086,3.0148,3.0188,3.0201,3.0181,3.0126,3.0037,2.9919,2.9777,2.9619,2.9453,2.9287,2.9127,2.8977,2.8838,2.8709,2.8583,2.8457,2.8322,2.8172,2.8002,2.7808,2.7591,2.7352,2.7097,2.6834,2.657,2.6317,2.608,2.5867,2.5681,2.5523,2.5391,2.5282,2.5189,2.5106,2.5027,2.4947,2.4864,2.4779,2.4693,2.4613,2.4545,2.4495,2.447,2.4476,2.4515,2.4586,2.4688,2.4813,2.4954,2.5101,2.5246,2.5379,2.5494,2.5587,2.5657,2.5706,2.5739,2.5762,2.5783,2.5807,2.584,2.5886,2.5946,2.6016,2.6093,2.6171,2.6244,2.6304,2.6349,2.6374,2.6381,2.6372,2.6355,2.6336,2.6326,2.6334,2.6366,2.643,2.6527,2.6657,2.6818,2.7001,2.7198,2.74,2.7598,2.7784,2.7951,2.8096,2.822,2.8324,2.8413,2.8494,2.8571,2.8651,2.8735,2.8827,2.8924,2.9023,2.9118,2.9202,2.927,2.9316,2.9337,2.9331,2.9302,2.9254,2.9193,2.9129,2.907,2.9024,2.8997,2.8992,2.9008,2.9042,2.9087,2.9135,2.9177,2.9202,2.9202,2.9171,2.9105,2.9004,2.8872,2.8713,2.8535,2.8345,2.8151,2.7958,2.777,2.7588,2.7411,2.7237,2.7062,2.6879,2.6687,2.6482,2.6264,2.6037,2.5804,2.5574,2.5355,2.5156,2.4986,2.4851,2.4754,2.4697,2.4676,2.4684,2.4714,2.4755,2.4796,2.4828,2.4843,2.4838,2.4809,2.4759,2.4693,2.4616,2.4535,2.4459,2.4392,2.4339,2.4301,2.4277,2.4263,2.4254,2.4244,2.4228,2.4203,2.4166,2.4118,2.4064,2.4008,2.396,2.3929,2.3923,2.3951,2.4017,2.4124,2.427,2.4452,2.4661,2.4888,2.5124,2.5358,2.5582,2.5789,2.5975,2.6141,2.6288,2.6421,2.6545,2.6666,2.6788,2.6916,2.7051,2.7191,2.7333,2.7473,2.7606,2.7727,2.7832,2.7921,2.7994,2.8056,2.8114,2.8177,2.8255,2.8356,2.8491,2.8663,2.8877,2.9129,2.9416,2.9729,3.0058,3.0389,3.0711,3.1013,3.1286,3.1525,3.1725,3.1888,3.2018,3.2119,3.2197,3.2257,3.2304,3.2339,3.2361,3.2368,3.2354,3.2313,3.2236,3.2118,3.1954,3.1743,3.1483,3.1181,3.0842,3.0476,3.0092,2.9699,2.9306,2.892,2.8543,2.8177,2.7819,2.7465,2.7109,2.6745,2.637,2.598,2.5574,2.5157,2.4732,2.4307,2.3893,2.3497,2.3129,2.2796,2.2501,2.2247,2.2031,2.1849,2.1694,2.156,2.1439,2.1324,2.1211,2.1098,2.0987,2.088,2.0784,2.0703,2.0646,2.0616,2.0617,2.065,2.0713,2.0799,2.0903,2.1013,2.1122,2.122,2.13,2.1359,2.1396,2.1412,2.1414,2.1409,2.1405,2.141,2.1431,2.1474,2.1541,2.163,2.1739,2.186,2.1988,2.2114,2.2233,2.2339,2.2432,2.2513,2.2586,2.2659,2.2742,2.2844,2.2978,2.3151,2.3373,2.3649,2.3982,2.4374,2.4823,2.5328,2.5889,2.6505,2.7178,2.7912,2.8711,2.9584,3.0537,3.1578,3.271,3.3935,3.5249,3.6643,3.8101,3.9603,4.1121,4.2624,4.408,4.5451,4.6703,4.7799,4.8708,4.9399,4.9846,5.0024,4.9915,4.9501,4.8768,4.7704,4.6301,4.4552,4.2459,4.0025,3.7262,3.4189,3.0834,2.7236,2.3442,1.9507,1.5495,1.1474,0.75165,0.36937,0.0075106,-0.32754,-0.63014,-0.89562,-1.1204,-1.3019,-1.439,-1.5311,-1.579,-1.584,-1.5484,-1.4747,-1.3661,-1.2258,-1.0577,-0.86557,-0.65367,-0.42629,-0.18793,0.056827,0.30335,0.54709,0.78374,1.0093,1.2203,1.414,1.5882,1.7418,1.8743,1.986,2.0782,2.1525,2.211,2.256,2.2898,2.3146,2.3326,2.3452,2.3539,2.3597,2.3632,2.365,2.3656,2.3653,2.3647,2.3643,2.3648,2.367,2.3715,2.379,2.3901,2.4049,2.4235,2.4455,2.4703,2.4968,2.5242,2.5512,2.5769,2.6003,2.6209,2.6383,2.6525,2.664,2.6733,2.6812,2.6886,2.6962,2.7047,2.7144,2.7255,2.7378,2.7509,2.7642,2.7771,2.7889,2.7993,2.8078,2.8144,2.8194,2.8231,2.8261,2.8291,2.8325,2.837,2.8427,2.8497,2.8577,2.8662,2.8747,2.8823,2.8885,2.8926,2.8943,2.8936,2.8906,2.8861,2.8806,2.875,2.8703,2.8673,2.8665,2.8683,2.8726,2.8792,2.8875,2.8966,2.9056,2.9136,2.9199,2.9238,2.9251,2.9239,2.9203,2.9151,2.909,2.9026,2.8967,2.8919,2.8885,2.8865,2.8857,2.8857,2.8861,2.886,2.8851,2.883,2.8794,2.8745,2.8686,2.8625,2.8567,2.8522,2.8496,2.8497,2.8527,2.8587,2.8674,2.8784,2.8908,2.9039,2.9167,2.9284,2.9384,2.9465,2.9527,2.957,2.9602,2.9627,2.9652,2.9684,2.9727,2.9782,2.9849,2.9923,2.9998,3.0067,3.012,3.015,3.0151,3.012,3.0058,2.9967,2.9854,2.9729,2.9602,2.9485,2.9386,2.9316,2.9278,2.9274,2.9303,2.936,2.944,2.9534,2.9636,2.9739,2.9839,2.9934,3.0023,3.011,3.0198,3.0291,3.0392,3.0503,3.0623,3.0751,3.0879,3.0999,3.11,3.1173,3.1206,3.1189,3.1118,3.0987,3.0798,3.0554,3.0261,2.9927,2.9562,2.9174,2.8771,2.8358,2.7938,2.7509,2.707,2.6616,2.6141,2.5642,2.5113,2.4554,2.3967,2.3356,2.2729,2.2094,2.1464,2.0849,2.0259,1.9701,1.9181,1.8698,1.8252,1.7837,1.7446,1.7071,1.6704,1.6338,1.5967,1.559,1.5206,1.4819,1.4432,1.4051,1.3681,1.3326,1.2988,1.2668,1.2364,1.207,1.178,1.1488,1.1188,1.0873,1.0542,1.0194,0.98336,0.94663,0.91012,0.8749,0.84205,0.8126,0.78736,0.76689,0.75142,0.74084,0.73471,0.7324,0.7331,0.73601,0.74037,0.74562,0.7514,0.75761,0.76438,0.77202,0.78096,0.79161,0.8043,0.8192,0.83622,0.85504,0.87507,0.89555,0.9156,0.93433,0.95096,0.96492,0.9759,0.98393,0.98935,0.99282,0.99516,0.99732,1.0002,1.0046,1.0111,1.02,1.0311,1.044,1.0583,1.0731,1.0876,1.1011,1.1129,1.1227,1.1304,1.1363,1.1407,1.1443,1.1477,1.1515,1.1561,1.1619,1.1688,1.1765,1.1844,1.1919,1.1982,1.2026,1.2043,1.2031,1.1988,1.1917,1.1821,1.1709,1.1588,1.1466,1.1352,1.1252,1.1168,1.1103,1.1053,1.1015,1.0983,1.0951,1.0914,1.0868,1.081,1.0742,1.0668,1.0594,1.0526,1.0474,1.0443,1.044,1.0467,1.0524,1.0607,1.071,1.0825,1.0941,1.1048,1.1139,1.1205,1.1244,1.1255,1.1241,1.1208,1.1163,1.1115,1.1072,1.1041,1.1027,1.1032,1.1055,1.1093,1.1142,1.1196,1.125,1.1298,1.1339,1.1373,1.1402,1.1432,1.1468,1.152,1.1593,1.1694,1.1828,1.1995,1.2192,1.2416,1.2658,1.291,1.3162,1.3405,1.3631,1.3837,1.4019,1.4177,1.4317,1.4441,1.4556,1.4667,1.4779,1.4893,1.5011,1.5128,1.524,1.5341,1.5422,1.5478,1.5503,1.5494,1.5452,1.538,1.5285,1.5176,1.5065,1.4963,1.4881,1.4826,1.4805,1.4821,1.4871,1.4951,1.5054,1.5173,1.5296,1.5417,1.5528,1.5626,1.5708,1.5776,1.5832,1.5883,1.5931,1.5983,1.604,1.6103,1.6172,1.624,1.6304,1.6355,1.6388,1.6396,1.6375,1.6326,1.6251,1.6154,1.6044,1.5931,1.5825,1.5737,1.5675,1.5645,1.5649,1.5687,1.5755,1.5845,1.595,1.606,1.6166,1.6261,1.634,1.6402,1.6446,1.6476,1.6495,1.6508,1.6521,1.6536,1.6554,1.6575,1.6597,1.6613,1.6619,1.6609,1.6577,1.6521,1.644,1.6337,1.6217,1.6089,1.5961,1.5846,1.5752,1.569,1.5664,1.5678,1.5732,1.582,1.5937,1.6072,1.6215,1.6358,1.6489,1.6603,1.6697,1.6768,1.6818,1.6851,1.6873,1.6889,1.6903,1.692,1.6941,1.6964,1.6987,1.7005,1.7013,1.7006,1.6977,1.6926,1.6851,1.6756,1.6646,1.6528,1.6411,1.6303,1.6213,1.6145,1.6105,1.609,1.6099,1.6125,1.6161,1.6198,1.6226,1.6239,1.6231,1.6199,1.6144,1.607,1.5982,1.5889,1.5796,1.5712,1.5641,1.5587,1.5548,1.5523,1.5506,1.5491,1.547,1.5438,1.539,1.5324,1.5241,1.5144,1.5038,1.4932,1.4834,1.4752,1.469,1.4655,1.4645,1.4659,1.4692,1.4736,1.4783,1.4823,1.485,1.4858,1.4843,1.4806,1.4752,1.4685,1.4615,1.4549,1.4497,1.4464,1.4456,1.4473,1.4514,1.4575,1.4649,1.4728,1.4804,1.4871,1.4924,1.4959,1.4977,1.498,1.4975,1.4966,1.496,1.4963,1.4979,1.5008,1.5051,1.5104,1.5162,1.5218,1.5266,1.53,1.5317,1.5314,1.5294,1.526,1.5221,1.5184,1.5159,1.5154,1.5177,1.5231,1.5317,1.5434,1.5575,1.5734,1.59,1.6066,1.6221,1.636,1.6478,1.6574,1.6651,1.6711,1.6762,1.6808,1.6855,1.6908,1.6966,1.703,1.7094,1.7151,1.7194,1.7214,1.7202,1.7152,1.706,1.6927,1.6755,1.655,1.6321,1.6079,1.5833,1.5594,1.5369,1.5165,1.4983,1.4823,1.4682,1.4555,1.4437,1.4322,1.4207,1.4089,1.3968,1.3846,1.3728,1.3621,1.3529,1.3459,1.3415,1.3398,1.3407,1.3438,1.3482,1.3532,1.3577,1.3607,1.3612,1.3586,1.3526,1.343,1.3303,1.3149,1.2976,1.2793,1.2608,1.2429,1.226,1.2105,1.1964,1.1835,1.1714,1.1596,1.1479,1.1358,1.1234,1.1108,1.0984,1.0868,1.0769,1.0696,1.0656,1.0655,1.0698,1.0785,1.0914,1.1078,1.1268,1.1473,1.1684,1.1888,1.2077,1.2244,1.2386,1.2502,1.2597,1.2673,1.2739,1.28,1.2862,1.2929,1.3002,1.308,1.3161,1.3238,1.3306,1.3359,1.3392,1.3403,1.339,1.3358,1.3312,1.326,1.3211,1.3176,1.3162,1.3177,1.3226,1.331,1.3426,1.3571,1.3736,1.3915,1.4097,1.4276,1.4446,1.4602,1.4745,1.4874,1.4994,1.5107,1.5219,1.5331,1.5447,1.5564,1.568,1.5789,1.5884,1.5956,1.5999,1.6005,1.597,1.5894,1.5777,1.5627,1.545,1.5257,1.5059,1.4868,1.4693,1.4541,1.4417,1.4321,1.4252,1.4205,1.4174,1.4151,1.413,1.4105,1.4074,1.4034,1.3989,1.3939,1.3891,1.3849,1.3816,1.3796,1.3788,1.379,1.3796,1.3801,1.3795,1.3771,1.3721,1.3641,1.3527,1.3381,1.3207,1.3014,1.2811,1.2609,1.242,1.2254,1.2121,1.2024,1.1967,1.1947,1.1961,1.2003,1.2064,1.2139,1.222,1.2303,1.2386,1.247,1.2557,1.2651,1.2757,1.2878,1.3018,1.3177,1.3353,1.354,1.3732,1.3918,1.409,1.4237,1.4352,1.4428,1.4463,1.4457,1.4414,1.4339,1.4241,1.4127,1.4007,1.3885,1.3765,1.3648,1.3532,1.3412,1.3282,1.3134,1.2962,1.276,1.2526,1.2259,1.1964,1.1647,1.1316,1.0981,1.0654,1.0343,1.0056,0.97992,0.9574,0.93799,0.92139,0.90712,0.89463,0.88344,0.87316,0.86364,0.85495,0.84743,0.8416,0.83813,0.83771,0.84098,0.8484,0.86016,0.87618,0.89603,0.91901,0.94416,0.97043,0.9967,1.0219,1.0453,1.0663,1.0845,1.1,1.1129,1.1237,1.1329,1.1409,1.1481,1.1546,1.1606,1.1656,1.1692,1.171,1.1703,1.1667,1.1599,1.1499,1.1371,1.1219,1.1054,1.0886,1.0726,1.0588,1.048,1.0413,1.0392,1.0419,1.0496,1.0621,1.0789,1.0998,1.1245,1.1529,1.1852,1.2218,1.2635,1.3113,1.3664,1.4299,1.5028,1.5858,1.6794,1.7835,1.8974,2.0201,2.1501,2.2853,2.4236,2.5624,2.6991,2.8312,2.9561,3.071,3.1734,3.2606,3.3301,3.3789,3.4043,3.4033,3.3731,3.3107,3.2137,3.0799,2.9079,2.6971,2.4479,2.1618,1.8417,1.4915,1.1164,0.72242,0.31658,-0.093783,-0.50107,-0.89777,-1.2767,-1.6313,-1.9558,-2.2452,-2.4955,-2.7038,-2.8679,-2.9866,-3.0595,-3.0871,-3.0706,-3.0116,-2.9128,-2.7772,-2.6086,-2.4115,-2.1906,-1.9512,-1.6988,-1.4392,-1.1778,-0.92009,-0.67086,-0.43433,-0.21395,-0.012278,0.16904,0.32923,0.46835,0.58713,0.68684,0.76911,0.83576,0.88866,0.9296,0.96025,0.98209,0.99645,1.0045,1.0075,1.0065,1.0026,0.99719,0.99153,0.98698,0.98484,0.9863,0.99236,1.0037,1.0206,1.043,1.0704,1.102,1.1365,1.1728,1.2093,1.2447,1.2781,1.3086,1.3358,1.3596,1.3802,1.3984,1.4146,1.4298,1.4445,1.4594,1.4746,1.4903,1.5063,1.5221,1.5372,1.5512,1.5636,1.5742,1.583,1.5902,1.5962,1.6017,1.6075,1.6142,1.6226,1.6329,1.6454,1.6598,1.6756,1.6923,1.7087,1.724,1.7373,1.7479,1.755,1.7587,1.7589,1.7561,1.7508,1.7439,1.7361,1.728,1.7203,1.7131,1.7065,1.7002,1.6937,1.6864,1.6778,1.6674,1.6547,1.6398,1.6229,1.6044,1.5852,1.5662,1.5482,1.5323,1.5191,1.5091,1.5023,1.4987,1.4976,1.4982,1.4998,1.5012,1.5018,1.5007,1.4977,1.4927,1.4859,1.4779,1.4695,1.4614,1.4545,1.4494,1.4466,1.4462,1.4481,1.452,1.4572,1.4629,1.4685,1.4732,1.4768,1.4789,1.4796,1.4792,1.4784,1.4777,1.4779,1.4796,1.4832,1.489,1.4969,1.5066,1.5177,1.5294,1.5412,1.5524,1.5626,1.5715,1.5793,1.5862,1.5929,1.6,1.6084,1.6187,1.6315,1.6472,1.6657,1.6867,1.7096,1.7337,1.7579,1.7813,1.8031,1.8226,1.8394,1.8534,1.8649,1.8742,1.882,1.8888,1.8953,1.9019,1.9088,1.9159,1.9229,1.9291,1.9339,1.9364,1.9358,1.9316,1.9233,1.9109,1.8947,1.875,1.8527,1.8285,1.8033,1.7778,1.7525,1.7277,1.7033,1.679,1.6541,1.6279,1.5995,1.5683,1.5336,1.495,1.4525,1.4064,1.3572,1.3056,1.2523,1.1982,1.144,1.0901,1.0367,0.98395,0.93142,0.8787,0.82522,0.77044,0.71393,0.65546,0.59504,0.53299,0.46985,0.40639,0.34349,0.28203,0.22279,0.16639,0.11314,0.063093,0.015972,-0.028744,-0.071759,-0.11386,-0.1558,-0.19819,-0.24143,-0.28562,-0.33057,-0.3758,-0.42064,-0.46429,-0.50591,-0.54479,-0.58037,-0.61238,-0.64079,-0.66587,-0.68808,-0.70803,-0.72636,-0.74366,-0.76034,-0.7766,-0.79237,-0.80735,-0.821,-0.83266,-0.84165,-0.84733,-0.84926,-0.84721,-0.84128,-0.83184,-0.81954,-0.80522,-0.78983,-0.77427,-0.75936,-0.74565,-0.73344,-0.72269,-0.71305,-0.70391,-0.69453,-0.68408,-0.67181,-0.65713,-0.63972,-0.61954,-0.59687,-0.57226,-0.54648,-0.52038,-0.49483,-0.47058,-0.44817,-0.4279,-0.40975,-0.39344,-0.37847,-0.3642,-0.34995,-0.3351,-0.31924,-0.30214,-0.28387,-0.26479,-0.24543,-0.22648,-0.20866,-0.19265,-0.17889,-0.16764,-0.15882,-0.15208,-0.14682,-0.14226,-0.13756,-0.13192,-0.12472,-0.11554,-0.1043,-0.091225,-0.076832,-0.061866,-0.04721,-0.033769,-0.022357,-0.013596,-0.0078447,-0.0051556,-0.0052769,-0.0076989,-0.011732,-0.016602,-0.021562,-0.025995,-0.029491,-0.031897,-0.033327,-0.034132,-0.034839,-0.036053,-0.038362,-0.042232,-0.047928,-0.055459,-0.064558,-0.074715,-0.085227,-0.095291,-0.1041,-0.11095,-0.11533,-0.117,-0.11598,-0.11257,-0.10731,-0.10088,-0.093983,-0.087289,-0.081302,-0.076303,-0.072313,-0.069094,-0.066192,-0.063009,-0.058903,-0.05329,-0.045739,-0.036049,-0.024295,-0.010835,0.0037262,0.018604,0.03293,0.045858,0.056679,0.064908,0.070348,0.073117,0.073638,0.072584,0.070794,0.069164,0.068539,0.069604,0.072797,0.078268,0.085864,0.095165,0.10554,0.11627,0.1266,0.13591,0.14373,0.14986,0.15436,0.15752,0.15985,0.16193,0.16438,0.16773,0.17232,0.17828,0.18546,0.19351,0.20186,0.20988,0.21692,0.22243,0.22608,0.22779,0.22777,0.22654,0.22484,0.22354,0.22356,0.22574,0.2307,0.23879,0.25002,0.26406,0.28026,0.29773,0.31542,0.33229,0.34738,0.35992,0.36944,0.37579,0.37913,0.37989,0.37872,0.37633,0.37343,0.37063,0.36831,0.36664,0.36552,0.36463,0.36351,0.36162,0.35848,0.35371,0.34716,0.3389,0.32927,0.31885,0.30836,0.29859,0.2903,0.28408,0.28032,0.27907,0.28011,0.28287,0.28658,0.2903,0.29306,0.29398,0.29236,0.2878,0.28022,0.26988,0.25735,0.24341,0.229,0.21504,0.20236,0.19159,0.1831,0.17695,0.17293,0.17061,0.1694,0.16869,0.16792,0.16671,0.16488,0.16255,0.16006,0.15798,0.15701,0.15785,0.16111,0.16725,0.17642,0.18849,0.203,0.21925,0.23633,0.25325,0.26905,0.28291,0.29422,0.30268,0.30829,0.31134,0.31235,0.31196,0.31087,0.30969,0.30886,0.3086,0.30888,0.30939,0.30965,0.30904,0.30694,0.30277,0.29618,0.287,0.27541,0.26183,0.24693,0.23155,0.21659,0.2029,0.19118,0.18185,0.17504,0.17055,0.1679,0.16636,0.16506,0.16316,0.15989,0.15472,0.14739,0.13797,0.12685,0.11467,0.10226,0.090489,0.080182,0.071992,0.06632,0.063262,0.062604,0.063861,0.06635,0.069294,0.071932,0.073636,0.073998,0.072888,0.070471,0.067184,0.06367,0.060683,0.058979,0.059209,0.061821,0.066993,0.074607,0.084258,0.095312,0.10699,0.11846,0.12897,0.13794,0.14504,0.15023,0.15376,0.15614,0.15805,0.16027,0.16352,0.1684,0.17528,0.18426,0.19514,0.20744,0.2205,0.23352,0.24574,0.25646,0.26522,0.2718,0.27631,0.27912,0.28083,0.2822,0.28403,0.287,0.29165,0.29822,0.30667,0.31662,0.32743,0.33828,0.34827,0.35653,0.36233,0.36523,0.36507,0.36204,0.35665,0.34963,0.3419,0.33439,0.32794,0.3232,0.32054,0.32003,0.32141,0.32414,0.32753,0.33077,0.3331,0.33392,0.33284,0.32975,0.32485,0.31857,0.31158,0.3046,0.29837,0.29349,0.29036,0.28909,0.28949,0.29111,0.29327,0.29516,0.29594,0.29489,0.29144,0.2853,0.27648,0.26525,0.25213,0.23781,0.22304,0.20851,0.19479,0.18221,0.17088,0.16062,0.15104,0.14159,0.13169,0.12078,0.10847,0.094588,0.079243,0.062823,0.045965,0.029482,0.014272,0.0012,-0.0090141,-0.015885,-0.019228,-0.019192,-0.016238,-0.011087,-0.0046224,0.0022141,0.0085444,0.013662,0.017115,0.018751,0.018725,0.017468,0.015613,0.0139,0.013062,0.013724,0.01631,0.020984,0.027627,0.035861,0.045098,0.054627,0.063713,0.07171,0.078145,0.082788,0.085683,0.087141,0.087692,0.088001,0.088777,0.090664,0.094148,0.099479,0.10664,0.11535,0.12508,0.13518,0.14493,0.15365,0.16087,0.1663,0.16999,0.17227,0.17372,0.17513,0.17738,0.18131,0.18761,0.19675,0.20888,0.22379,0.24097,0.25962,0.27876,0.29734,0.31437,0.32902,0.34072,0.3492,0.35451,0.35699,0.35719,0.35581,0.35352,0.35093,0.34847,0.34633,0.34441,0.3424,0.3398,0.336,0.33036,0.3224,0.31178,0.29845,0.28265,0.26488,0.24588,0.22653,0.20774,0.19036,0.17507,0.1623,0.15218,0.14456,0.13902,0.13497,0.13172,0.12861,0.12511,0.12088,0.11586,0.11026,0.10452,0.099294,0.09529,0.093213,0.093636,0.09691,0.1031,0.11197,0.12298,0.13536,0.14819,0.1605,0.1714,0.18018,0.18639,0.18988,0.19083,0.18969,0.18715,0.18402,0.18112,0.1792,0.1788,0.18027,0.18367,0.1888,0.1953,0.20267,0.21042,0.2181,0.22547,0.23249,0.23938,0.24655,0.25464,0.26435,0.27636,0.29125,0.30938,0.33082,0.35531,0.38225,0.4108,0.43987,0.4683,0.49493,0.51876,0.539,0.55516,0.56708,0.57491,0.57908,0.58018,0.57888,0.57583,0.57154,0.56632,0.56022,0.55307,0.54447,0.5339,0.52078,0.50463,0.48511,0.46211,0.43582,0.40673,0.37557,0.34323,0.31072,0.279,0.2489,0.22104,0.19575,0.17306,0.15273,0.13428,0.11712,0.10063,0.084251,0.067611,0.05057,0.033256,0.016052,-0.00045394,-0.015547,-0.028499,-0.038673,-0.045626,-0.049187,-0.049498,-0.047017,-0.042467,-0.036765,-0.030916,-0.025895,-0.022534,-0.021432,-0.022892,-0.026905,-0.033163,-0.041126,-0.050105,-0.059373,-0.068265,-0.076279,-0.083139,-0.088834,-0.093602,-0.097889,-0.10227,-0.10737,-0.11372,-0.1217,-0.13146,-0.14287,-0.15555,-0.16888,-0.18208,-0.19434,-0.20487,-0.21307,-0.21851,-0.22106,-0.22083,-0.21816,-0.21354,-0.20745,-0.20031,-0.19234,-0.18346,-0.17323,-0.16083,-0.14511,-0.12463,-0.097809,-0.063037,-0.018831,0.036032,0.1024,0.18066,0.27074,0.37206,0.48367,0.60426,0.73231,0.86617,1.0041,1.1445,1.2855,1.4256,1.5629,1.6957,1.8218,1.9387,2.0438,2.1339,2.2055,2.255,2.2787,2.2729,2.234,2.1594,2.0468,1.8948,1.7032,1.4728,1.2054,0.90408,0.57273,0.21615,-0.1602,-0.55036,-0.94809,-1.347,-1.7406,-2.1227,-2.4873,-2.8286,-3.1414,-3.4209,-3.6627,-3.8634,-4.0201,-4.1306,-4.1939,-4.2098,-4.1793,-4.1043,-3.9879,-3.834,-3.6474,-3.4338,-3.1989,-2.9489,-2.6898,-2.4275,-2.167,-1.9131,-1.6696,-1.4395,-1.225,-1.0276,-0.84821,-0.68721,-0.54457,-0.42001,-0.31306,-0.22308,-0.14932,-0.090895,-0.046752,-0.015649,0.0038834,0.013542,0.01524,0.011055,0.0031549,-0.0063107,-0.015328,-0.022139,-0.025346,-0.024,-0.017643,-0.0063065,0.0095278,0.029016,0.051067,0.074482,0.098096,0.1209,0.14213,0.16134,0.17842,0.19352,0.20702,0.21942,0.23122,0.24284,0.25452,0.26627,0.27788,0.28894,0.2989,0.30718,0.31327,0.31678,0.31761,0.31591,0.31215,0.30705,0.30151,0.29657,0.2932,0.29227,0.2944,0.29991,0.30878,0.32065,0.3349,0.3507,0.36713,0.38328,0.3984,0.41194,0.42364,0.43351,0.44183,0.44907,0.4558,0.46259,0.4699,0.47802,0.487,0.49664,0.50651,0.51603,0.52453,0.53136,0.53598,0.53806,0.53753,0.53459,0.52972,0.5236,0.51704,0.51086,0.5058,0.50244,0.50105,0.50166,0.50394,0.50735,0.51115,0.51449,0.51659,0.51677,0.5146,0.50989,0.50278,0.49364,0.48309,0.47184,0.46064,0.45016,0.44086,0.43301,0.42657,0.42128,0.41664,0.41206,0.40689,0.40059,0.39281,0.38344,0.37266,0.36096,0.34906,0.33787,0.32833,0.32133,0.31762,0.31767,0.32164,0.32935,0.34033,0.35384,0.36902,0.38495,0.40077,0.41581,0.42964,0.44209,0.45329,0.46358,0.47345,0.48348,0.49418,0.50591,0.51886,0.53294,0.54782,0.56299,0.57777,0.59146,0.60343,0.61322,0.62062,0.62569,0.62883,0.63068,0.63207,0.63392,0.63709,0.64234,0.65012,0.66058,0.67354,0.68847,0.70457,0.72087,0.73633,0.74998,0.76102,0.76889,0.77334,0.77442,0.77248,0.76804,0.76175,0.75425,0.74606,0.7375,0.72863,0.71922,0.70878,0.69659,0.68183,0.66369,0.64142,0.61449,0.58263,0.54589,0.5046,0.45934,0.41085,0.35997,0.30747,0.254,0.19999,0.1456,0.090744,0.035103,-0.021796,-0.080482,-0.14144,-0.20499,-0.27123,-0.33996,-0.41066,-0.48256,-0.55465,-0.62583,-0.69498,-0.76111,-0.82346,-0.88157,-0.93532,-0.98496,-1.031,-1.0742,-1.1155,-1.1558,-1.1957,-1.2359,-1.2766,-1.3179,-1.3596,-1.4012,-1.4421,-1.4818,-1.5198,-1.5558,-1.5895,-1.6211,-1.6509,-1.6794,-1.7071,-1.7346,-1.7622,-1.7901,-1.8184,-1.8467,-1.8744,-1.9008,-1.925,-1.9462,-1.9637,-1.977,-1.9857,-1.99,-1.9904,-1.9874,-1.9819,-1.9748,-1.9671,-1.9595,-1.9525,-1.9465,-1.9412,-1.9363,-1.9314,-1.9256,-1.9182,-1.9087,-1.8966,-1.8817,-1.8641,-1.8442,-1.8227,-1.8004,-1.7782,-1.7569,-1.7372,-1.7195,-1.7041,-1.6909,-1.6795,-1.6694,-1.6599,-1.6506,-1.6409,-1.6306,-1.6195,-1.6079,-1.5962,-1.5852,-1.5754,-1.5676,-1.5623,-1.5598,-1.5602,-1.5632,-1.5681,-1.5741,-1.5803,-1.5854,-1.5887,-1.5891,-1.5862,-1.5798,-1.57,-1.5572,-1.5421,-1.5256,-1.5083,-1.4912,-1.4748,-1.4595,-1.4453,-1.4321,-1.4196,-1.4074,-1.3949,-1.3818,-1.368,-1.3534,-1.3383,-1.3233,-1.3091,-1.2963,-1.2858,-1.2783,-1.274,-1.2732,-1.2756,-1.2807,-1.2877,-1.2955,-1.3031,-1.3094,-1.3136,-1.3149,-1.3131,-1.3081,-1.3003,-1.2902,-1.2785,-1.2662,-1.2538,-1.2421,-1.2313,-1.2215,-1.2127,-1.2043,-1.1959,-1.1869,-1.1767,-1.1649,-1.1514,-1.1364,-1.12,-1.1031,-1.0863,-1.0704,-1.0563,-1.0446,-1.0357,-1.0297,-1.0263,-1.0253,-1.0257,-1.0269,-1.0279,-1.0281,-1.0269,-1.0239,-1.0191,-1.0129,-1.0058,-0.99825,-0.99108,-0.98487,-0.98007,-0.97687,-0.9752,-0.97469,-0.97475,-0.97463,-0.97351,-0.97066,-0.96549,-0.95769,-0.94726,-0.93452,-0.92006,-0.90472,-0.88944,-0.87519,-0.86279,-0.85287,-0.84577,-0.8415,-0.83973,-0.83989,-0.8412,-0.84281,-0.8439,-0.84379,-0.84206,-0.83854,-0.83341,-0.82707,-0.82018,-0.81347,-0.8077,-0.80349,-0.8013,-0.80127,-0.8033,-0.80699,-0.81173,-0.81678,-0.82137,-0.8248,-0.82655,-0.82635,-0.82419,-0.82032,-0.81522,-0.80952,-0.80389,-0.79895,-0.7952,-0.79289,-0.79203,-0.79239,-0.79351,-0.79479,-0.79558,-0.79529,-0.79348,-0.78994,-0.78475,-0.77826,-0.77109,-0.76403,-0.75797,-0.75378,-0.75215,-0.75356,-0.75818,-0.76585,-0.77607,-0.78808,-0.80095,-0.81367,-0.82527,-0.83495,-0.84215,-0.84662,-0.84842,-0.84787,-0.84556,-0.84217,-0.83843,-0.83496,-0.83221,-0.8304,-0.82947,-0.82912,-0.82886,-0.82811,-0.82625,-0.82278,-0.8174,-0.81,-0.80079,-0.7902,-0.77885,-0.76747,-0.75681,-0.74749,-0.73996,-0.73439,-0.73065,-0.72833,-0.72677,-0.72517,-0.72264,-0.7184,-0.71179,-0.70245,-0.6903,-0.6756,-0.65891,-0.64101,-0.62282,-0.60531,-0.58932,-0.57551,-0.56426,-0.55566,-0.54947,-0.5452,-0.54218,-0.53965,-0.5369,-0.53333,-0.52859,-0.52258,-0.51548,-0.50771,-0.49987,-0.49266,-0.48674,-0.48266,-0.48078,-0.48119,-0.48371,-0.48791,-0.49316,-0.49875,-0.50395,-0.50815,-0.51094,-0.51217,-0.51201,-0.51089,-0.50949,-0.50863,-0.50917,-0.5119,-0.51743,-0.52609,-0.53793,-0.55264,-0.56968,-0.58825,-0.60748,-0.6265,-0.64455,-0.66107,-0.67579,-0.68872,-0.70013,-0.71051,-0.72045,-0.7306,-0.74146,-0.75339,-0.76648,-0.78053,-0.7951,-0.80951,-0.82297,-0.83467,-0.84393,-0.85025,-0.85342,-0.8536,-0.85125,-0.84713,-0.84218,-0.83745,-0.83395,-0.83252,-0.83374,-0.83786,-0.84476,-0.85401,-0.86487,-0.87645,-0.88777,-0.89789,-0.90605,-0.91169,-0.91455,-0.91465,-0.91223,-0.90774,-0.9017,-0.89461,-0.88688,-0.87873,-0.87018,-0.86102,-0.85087,-0.83924,-0.82563,-0.80962,-0.79094,-0.76962,-0.74596,-0.72055,-0.69425,-0.66813,-0.64333,-0.62094,-0.60193,-0.58701,-0.57655,-0.57056,-0.56868,-0.57026,-0.57444,-0.58023,-0.58668,-0.59295,-0.59841,-0.60271,-0.60578,-0.60779,-0.60911,-0.61024,-0.61165,-0.61376,-0.61679,-0.62074,-0.6254,-0.63034,-0.63495,-0.6386,-0.64067,-0.64069,-0.63841,-0.63387,-0.62743,-0.61971,-0.61159,-0.60406,-0.59815,-0.59477,-0.59463,-0.59814,-0.60537,-0.61603,-0.6295,-0.64497,-0.66144,-0.67796,-0.69366,-0.70789,-0.72027,-0.73075,-0.73956,-0.74715,-0.75416,-0.76123,-0.76895,-0.77772,-0.78774,-0.7989,-0.81084,-0.823,-0.83466,-0.84506,-0.85355,-0.85961,-0.863,-0.86375,-0.8622,-0.85895,-0.85475,-0.85047,-0.84691,-0.84477,-0.8445,-0.84625,-0.84991,-0.85506,-0.86109,-0.86724,-0.87276,-0.87699,-0.87943,-0.87987,-0.87833,-0.87513,-0.87077,-0.8659,-0.86118,-0.8572,-0.85437,-0.85283,-0.85246,-0.85283,-0.85328,-0.85297,-0.85104,-0.84667,-0.83919,-0.82823,-0.8137,-0.79586,-0.77528,-0.75273,-0.72916,-0.70552,-0.68267,-0.6613,-0.64184,-0.62439,-0.60879,-0.5946,-0.58123,-0.56798,-0.5542,-0.53935,-0.52309,-0.50535,-0.48628,-0.46629,-0.44595,-0.42589,-0.40674,-0.38899,-0.37292,-0.35856,-0.34569,-0.33384,-0.32237,-0.31055,-0.29769,-0.28324,-0.26687,-0.24853,-0.22854,-0.20749,-0.18625,-0.16586,-0.14742,-0.13199,-0.12044,-0.11342,-0.11127,-0.11402,-0.12138,-0.13285,-0.14779,-0.16552,-0.18541,-0.207,-0.23,-0.25439,-0.28032,-0.30811,-0.33815,-0.37081,-0.40634,-0.44477,-0.4859,-0.52921,-0.57397,-0.6192,-0.66385,-0.70683,-0.7472,-0.78419,-0.81734,-0.8465,-0.87186,-0.89389,-0.91326,-0.93076,-0.94718,-0.96319,-0.97927,-0.99562,-1.0122,-1.0286,-1.0443,-1.0586,-1.0708,-1.0803,-1.0867,-1.0898,-1.0899,-1.0874,-1.083,-1.0776,-1.0721,-1.0673,-1.0641,-1.0628,-1.0636,-1.0663,-1.0705,-1.0754,-1.0802,-1.0843,-1.0869,-1.0875,-1.0861,-1.0826,-1.0777,-1.0718,-1.0657,-1.0603,-1.0563,-1.054,-1.0539,-1.0557,-1.0592,-1.0637,-1.0684,-1.0723,-1.0745,-1.0744,-1.0711,-1.0644,-1.0539,-1.0397,-1.0219,-1.0005,-0.9757,-0.94726,-0.9149,-0.87804,-0.83584,-0.78727,-0.73119,-0.6665,-0.59221,-0.50759,-0.41233,-0.30656,-0.19091,-0.066539,0.064955,0.20157,0.34101,0.48081,0.61841,0.75127,0.87688,0.99284,1.0968,1.1865,1.2596,1.3138,1.3466,1.3554,1.3378,1.291,1.2126,1.1006,0.95308,0.76916,0.54863,0.29234,0.0022225,-0.31862,-0.66597,-1.0346,-1.4184,-1.8108,-2.2046,-2.5927,-2.9681,-3.3243,-3.6552,-3.9556,-4.2212,-4.4483,-4.6344,-4.7777,-4.8771,-4.9326,-4.9445,-4.9141,-4.8433,-4.7345,-4.5911,-4.4167,-4.2159,-3.9935,-3.755,-3.5057,-3.2515,-2.9978,-2.7497,-2.5118,-2.288,-2.0813,-1.8939,-1.7268,-1.5803,-1.4539,-1.3466,-1.2567,-1.1824,-1.1217,-1.0728,-1.0337,-1.003,-0.97913,-0.96098,-0.94745,-0.93753,-0.93024,-0.9246,-0.91958,-0.91413,-0.90724,-0.89797,-0.88556,-0.86949,-0.84956,-0.82591,-0.79907,-0.76988,-0.73943,-0.70899,-0.67987,-0.65325,-0.63012,-0.61116,-0.59665,-0.58652,-0.58028,-0.57716,-0.57621,-0.57634,-0.57655,-0.57594,-0.57386,-0.56996,-0.56416,-0.55662,-0.54774,-0.53797,-0.52778,-0.51754,-0.50744,-0.49746,-0.48735,-0.47668,-0.46489,-0.45137,-0.43562,-0.41726,-0.39618,-0.37254,-0.3468,-0.31968,-0.29211,-0.2651,-0.23965,-0.21665,-0.19678,-0.1804,-0.16758,-0.15803,-0.15123,-0.14643,-0.1428,-0.13954,-0.13597,-0.13163,-0.12632,-0.12013,-0.11338,-0.10659,-0.10038,-0.095332,-0.091949,-0.090525,-0.091102,-0.093461,-0.097131,-0.10146,-0.10569,-0.10908,-0.11099,-0.11101,-0.10897,-0.10501,-0.099552,-0.093244,-0.086879,-0.081296,-0.077267,-0.075395,-0.076038,-0.07927,-0.084868,-0.092351,-0.10105,-0.11022,-0.11911,-0.1271,-0.13376,-0.13893,-0.14272,-0.14549,-0.14776,-0.15018,-0.15337,-0.15782,-0.16385,-0.17148,-0.18044,-0.1902,-0.19998,-0.20888,-0.21594,-0.22033,-0.22139,-0.21876,-0.2124,-0.20263,-0.19008,-0.17561,-0.16022,-0.14492,-0.13064,-0.11807,-0.10768,-0.099584,-0.093639,-0.089428,-0.086367,-0.083806,-0.081125,-0.077837,-0.073652,-0.068523,-0.062641,-0.056396,-0.05031,-0.044949,-0.04082,-0.038288,-0.037504,-0.038376,-0.040563,-0.043522,-0.046573,-0.049004,-0.050168,-0.04959,-0.047049,-0.042629,-0.036729,-0.030033,-0.023443,-0.017982,-0.014679,-0.014449,-0.018001,-0.025755,-0.037811,-0.053951,-0.073693,-0.096363,-0.1212,-0.14747,-0.17455,-0.20204,-0.22977,-0.25785,-0.28661,-0.31655,-0.34826,-0.38231,-0.41914,-0.45899,-0.50187,-0.54748,-0.59531,-0.64463,-0.69463,-0.74449,-0.79351,-0.84116,-0.8872,-0.93164,-0.9748,-1.0172,-1.0596,-1.1027,-1.1472,-1.1936,-1.2423,-1.2931,-1.3459,-1.4001,-1.455,-1.5096,-1.5633,-1.6151,-1.6648,-1.7119,-1.7566,-1.7991,-1.84,-1.8799,-1.9194,-1.9591,-1.9992,-2.0398,-2.0807,-2.1213,-2.1608,-2.1982,-2.2327,-2.2633,-2.2893,-2.3103,-2.3262,-2.3374,-2.3443,-2.3477,-2.3487,-2.3482,-2.3469,-2.3456,-2.3446,-2.344,-2.3435,-2.3428,-2.3413,-2.3385,-2.3337,-2.3268,-2.3177,-2.3066,-2.2939,-2.2803,-2.2667,-2.2539,-2.2426,-2.2334,-2.2264,-2.2218,-2.2191,-2.2177,-2.2168,-2.2155,-2.2128,-2.2081,-2.2008,-2.1906,-2.1777,-2.1625,-2.1456,-2.1279,-2.1102,-2.0934,-2.0781,-2.0647,-2.0536,-2.0444,-2.0371,-2.0309,-2.0255,-2.0203,-2.0149,-2.0092,-2.0031,-1.9971,-1.9917,-1.9874,-1.9851,-1.9853,-1.9885,-1.995,-2.0047,-2.0172,-2.0318,-2.0477,-2.0639,-2.0793,-2.0931,-2.1047,-2.1137,-2.1199,-2.1237,-2.1255,-2.126,-2.126,-2.1261,-2.1269,-2.1287,-2.1317,-2.1356,-2.14,-2.1443,-2.1478,-2.15,-2.1502,-2.1483,-2.1442,-2.1382,-2.1308,-2.1227,-2.1146,-2.1073,-2.1014,-2.0974,-2.0954,-2.0952,-2.0965,-2.0985,-2.1004,-2.1015,-2.1008,-2.0978,-2.0922,-2.0838,-2.0729,-2.06,-2.0457,-2.0308,-2.0161,-2.0022,-1.9894,-1.978,-1.9677,-1.9583,-1.949,-1.9393,-1.9283,-1.9156,-1.9006,-1.8832,-1.8636,-1.8421,-1.8194,-1.7963,-1.7735,-1.7518,-1.7318,-1.7139,-1.6979,-1.6838,-1.6711,-1.6591,-1.6472,-1.6348,-1.6213,-1.6065,-1.5905,-1.5735,-1.5562,-1.5393,-1.5237,-1.5102,-1.4994,-1.4919,-1.4876,-1.4863,-1.4875,-1.4903,-1.4938,-1.497,-1.4987,-1.4984,-1.4954,-1.4896,-1.4812,-1.4705,-1.4584,-1.4456,-1.4329,-1.421,-1.4104,-1.4014,-1.3939,-1.3876,-1.382,-1.3764,-1.3702,-1.3626,-1.3534,-1.3423,-1.3294,-1.3152,-1.3002,-1.2851,-1.2707,-1.2576,-1.2464,-1.2374,-1.2303,-1.225,-1.2209,-1.2172,-1.2132,-1.2082,-1.2017,-1.1934,-1.1833,-1.1719,-1.1598,-1.1479,-1.1373,-1.1288,-1.1234,-1.1217,-1.124,-1.1303,-1.1401,-1.1528,-1.1676,-1.1833,-1.199,-1.2138,-1.2272,-1.2387,-1.2485,-1.2567,-1.2638,-1.2705,-1.2775,-1.2852,-1.2942,-1.3044,-1.3159,-1.3281,-1.3405,-1.3524,-1.363,-1.3716,-1.3777,-1.3812,-1.382,-1.3804,-1.377,-1.3724,-1.3673,-1.3625,-1.3585,-1.3555,-1.3537,-1.3529,-1.3526,-1.3524,-1.3517,-1.3499,-1.3466,-1.3417,-1.3352,-1.3276,-1.3195,-1.3116,-1.3047,-1.2997,-1.2973,-1.2978,-1.3013,-1.3077,-1.3164,-1.3266,-1.3375,-1.3481,-1.3574,-1.3649,-1.37,-1.3727,-1.373,-1.3714,-1.3686,-1.3654,-1.3624,-1.3603,-1.3596,-1.3604,-1.3626,-1.366,-1.3701,-1.3742,-1.3777,-1.3802,-1.3814,-1.3812,-1.3799,-1.378,-1.3761,-1.3751,-1.3756,-1.3784,-1.3839,-1.3923,-1.4032,-1.4163,-1.4307,-1.4454,-1.4595,-1.4719,-1.4819,-1.4889,-1.4927,-1.4935,-1.4918,-1.4883,-1.484,-1.4798,-1.4766,-1.4752,-1.476,-1.4792,-1.4847,-1.4921,-1.5007,-1.5098,-1.5188,-1.5271,-1.5342,-1.5399,-1.5443,-1.5476,-1.5503,-1.5528,-1.5556,-1.5589,-1.563,-1.5676,-1.5724,-1.5768,-1.5801,-1.5814,-1.58,-1.5752,-1.5666,-1.5543,-1.5384,-1.5196,-1.4986,-1.4765,-1.4543,-1.4329,-1.4132,-1.3957,-1.3806,-1.3678,-1.3569,-1.3473,-1.3383,-1.329,-1.319,-1.3077,-1.295,-1.281,-1.2661,-1.2509,-1.2363,-1.2229,-1.2114,-1.2024,-1.1961,-1.1925,-1.1914,-1.192,-1.1939,-1.1962,-1.1982,-1.1994,-1.1994,-1.1982,-1.196,-1.1933,-1.1907,-1.1889,-1.1886,-1.1903,-1.1944,-1.2009,-1.2096,-1.2201,-1.2315,-1.2432,-1.2543,-1.2642,-1.2724,-1.2786,-1.283,-1.286,-1.2881,-1.29,-1.2926,-1.2966,-1.3025,-1.3107,-1.321,-1.3333,-1.3471,-1.3615,-1.3758,-1.3893,-1.4012,-1.4113,-1.4193,-1.4253,-1.4299,-1.4337,-1.4374,-1.4417,-1.4474,-1.4549,-1.4644,-1.4758,-1.4887,-1.5025,-1.5163,-1.5293,-1.5406,-1.5495,-1.5556,-1.5585,-1.5584,-1.5556,-1.5505,-1.5436,-1.5354,-1.5265,-1.517,-1.507,-1.4961,-1.4841,-1.4703,-1.454,-1.4348,-1.4123,-1.3861,-1.3565,-1.3239,-1.289,-1.2526,-1.216,-1.1801,-1.1461,-1.1148,-1.0868,-1.0624,-1.0416,-1.0242,-1.0097,-0.9976,-0.9874,-0.97868,-0.9712,-0.965,-0.96033,-0.95771,-0.95777,-0.96124,-0.96878,-0.98091,-0.99791,-1.0197,-1.046,-1.0761,-1.109,-1.1436,-1.1787,-1.2132,-1.246,-1.2765,-1.3041,-1.3288,-1.3505,-1.3698,-1.387,-1.4026,-1.4171,-1.4307,-1.4433,-1.455,-1.4652,-1.4735,-1.4793,-1.4821,-1.4816,-1.4774,-1.4698,-1.4591,-1.4461,-1.4316,-1.4166,-1.4022,-1.3892,-1.3785,-1.3703,-1.365,-1.3622,-1.3616,-1.3624,-1.364,-1.3656,-1.3666,-1.3667,-1.3656,-1.3636,-1.3611,-1.3587,-1.357,-1.3569,-1.3588,-1.3633,-1.3703,-1.3798,-1.3913,-1.404,-1.4171,-1.4298,-1.4411,-1.4503,-1.457,-1.461,-1.4622,-1.4611,-1.458,-1.4533,-1.4474,-1.4405,-1.4325,-1.423,-1.4113,-1.3966,-1.3776,-1.3532,-1.3224,-1.2841,-1.2376,-1.1828,-1.1195,-1.0483,-0.97005,-0.88572,-0.79662,-0.70415,-0.6097,-0.5146,-0.42013,-0.32748,-0.23779,-0.15225,-0.072176,0.00091521,0.06522,0.11861,0.15861,0.18248,0.18729,0.17006,0.12796,0.058469,-0.040397,-0.16995,-0.33069,-0.52218,-0.74306,-0.99106,-1.263,-1.5551,-1.863,-2.1816,-2.5061,-2.8312,-3.1518,-3.4629,-3.7597,-4.0376,-4.2926,-4.5206,-4.7182,-4.8823,-5.0104,-5.1004,-5.1508,-5.1612,-5.1316,-5.0633,-4.9581,-4.8189,-4.6495,-4.4542,-4.238,-4.0061,-3.7638,-3.5163,-3.2684,-3.0245,-2.7882,-2.5625,-2.3497,-2.1513,-1.9683,-1.8011,-1.65,-1.5147,-1.395,-1.2904,-1.2004,-1.1246,-1.0623,-1.0127,-0.9748,-0.94752,-0.92936,-0.91867,-0.91361,-0.91226,-0.91274,-0.91328,-0.91243,-0.90909,-0.90262,-0.89285,-0.88009,-0.86501,-0.84861,-0.83204,-0.81646,-0.80295,-0.79235,-0.78519,-0.78169,-0.78174,-0.78496,-0.79078,-0.79855,-0.80765,-0.8176,-0.82808,-0.83903,-0.8506,-0.86311,-0.87698,-0.89264,-0.9104,-0.93038,-0.95243,-0.97611,-1.0007,-1.0252,-1.0484,-1.0693,-1.0868,-1.0999,-1.108,-1.1111,-1.1092,-1.1027,-1.0926,-1.0798,-1.0653,-1.05,-1.0349,-1.0203,-1.0067,-0.99393,-0.98184,-0.96996,-0.9578,-0.94488,-0.93086,-0.91561,-0.89923,-0.88209,-0.86476,-0.84796,-0.83248,-0.81902,-0.80815,-0.80021,-0.79526,-0.79306,-0.79311,-0.79471,-0.79706,-0.79932,-0.80078,-0.8009,-0.79942,-0.79633,-0.79193,-0.7867,-0.78127,-0.7763,-0.77237,-0.76988,-0.76897,-0.76951,-0.77106,-0.77296,-0.77436,-0.77438,-0.77217,-0.76706,-0.75864,-0.7468,-0.73177,-0.71407,-0.69447,-0.67384,-0.6531,-0.63305,-0.6143,-0.59716,-0.58166,-0.56751,-0.55418,-0.54095,-0.52707,-0.51186,-0.49478,-0.47559,-0.45431,-0.43129,-0.40714,-0.38265,-0.35868,-0.33605,-0.31544,-0.29727,-0.28167,-0.26845,-0.25714,-0.24705,-0.23737,-0.22729,-0.21609,-0.20329,-0.18868,-0.17235,-0.15473,-0.13644,-0.11831,-0.10121,-0.085909,-0.073057,-0.063024,-0.055891,-0.051442,-0.049197,-0.04849,-0.048569,-0.048712,-0.048337,-0.047092,-0.044917,-0.042061,-0.039062,-0.036678,-0.035791,-0.037301,-0.042006,-0.050503,-0.063115,-0.079862,-0.10046,-0.12439,-0.15094,-0.17935,-0.20893,-0.2391,-0.26955,-0.30022,-0.33135,-0.36342,-0.39707,-0.43303,-0.47199,-0.51449,-0.56086,-0.61112,-0.66501,-0.72199,-0.78129,-0.84203,-0.9033,-0.96429,-1.0244,-1.0832,-1.1407,-1.1971,-1.2528,-1.3084,-1.3647,-1.4221,-1.4811,-1.5419,-1.6045,-1.6685,-1.7332,-1.7978,-1.8616,-1.9235,-1.9829,-2.0393,-2.0925,-2.1426,-2.1899,-2.2351,-2.2788,-2.3217,-2.3646,-2.4078,-2.4514,-2.4954,-2.5393,-2.5824,-2.624,-2.6631,-2.699,-2.7311,-2.7591,-2.7828,-2.8026,-2.8191,-2.8329,-2.8451,-2.8564,-2.8675,-2.8791,-2.8912,-2.9039,-2.9167,-2.9291,-2.9403,-2.9495,-2.9561,-2.9594,-2.9593,-2.9557,-2.9489,-2.9396,-2.9284,-2.9161,-2.9034,-2.8911,-2.8793,-2.8684,-2.8581,-2.848,-2.8376,-2.8262,-2.8131,-2.7979,-2.7802,-2.7601,-2.7377,-2.7135,-2.6882,-2.6627,-2.6376,-2.6138,-2.5918,-2.5717,-2.5537,-2.5374,-2.5223,-2.5077,-2.4931,-2.4776,-2.461,-2.4429,-2.4234,-2.4027,-2.3816,-2.3606,-2.3407,-2.3226,-2.3069,-2.294,-2.2842,-2.2772,-2.2726,-2.2697,-2.2679,-2.2663,-2.2642,-2.2612,-2.2569,-2.2514,-2.2451,-2.2384,-2.2321,-2.2267,-2.223,-2.2214,-2.2221,-2.225,-2.2296,-2.2354,-2.2415,-2.2471,-2.2513,-2.2534,-2.2531,-2.2502,-2.2451,-2.2383,-2.2305,-2.2228,-2.216,-2.2111,-2.2085,-2.2086,-2.2115,-2.2168,-2.2239,-2.2319,-2.24,-2.2473,-2.2532,-2.257,-2.2586,-2.2581,-2.2557,-2.252,-2.2477,-2.2432,-2.2392,-2.2359,-2.2335,-2.2317,-2.2301,-2.2282,-2.2252,-2.2204,-2.2134,-2.2036,-2.191,-2.1758,-2.1585,-2.1398,-2.1205,-2.1015,-2.0838,-2.068,-2.0544,-2.0434,-2.0347,-2.0278,-2.0223,-2.0172,-2.012,-2.0061,-1.999,-1.9906,-1.9811,-1.9708,-1.9603,-1.9503,-1.9414,-1.9342,-1.929,-1.926,-1.9248,-1.9251,-1.926,-1.9267,-1.9262,-1.9238,-1.9188,-1.9109,-1.9,-1.8864,-1.8706,-1.8535,-1.8358,-1.8186,-1.8025,-1.788,-1.7756,-1.7652,-1.7565,-1.749,-1.742,-1.7348,-1.7269,-1.7178,-1.7074,-1.6956,-1.6828,-1.6696,-1.6567,-1.6448,-1.6345,-1.6263,-1.6204,-1.6169,-1.6152,-1.6148,-1.6149,-1.6147,-1.6134,-1.6104,-1.6052,-1.5977,-1.5881,-1.5769,-1.5649,-1.5528,-1.5415,-1.5318,-1.5242,-1.519,-1.5163,-1.5156,-1.5165,-1.5182,-1.5198,-1.5207,-1.5201,-1.5177,-1.5134,-1.5073,-1.4999,-1.4918,-1.4836,-1.4761,-1.4697,-1.4649,-1.4618,-1.4601,-1.4594,-1.4591,-1.4584,-1.4566,-1.4531,-1.4474,-1.4394,-1.4292,-1.4172,-1.4043,-1.3911,-1.3786,-1.3677,-1.3591,-1.3531,-1.35,-1.3496,-1.3514,-1.3548,-1.3592,-1.3637,-1.3678,-1.371,-1.3732,-1.3746,-1.3754,-1.3762,-1.3777,-1.3806,-1.3853,-1.3923,-1.4015,-1.4128,-1.4257,-1.4394,-1.453,-1.4657,-1.4766,-1.4852,-1.491,-1.4942,-1.495,-1.4941,-1.4923,-1.4907,-1.4901,-1.4914,-1.4952,-1.502,-1.5116,-1.524,-1.5385,-1.5546,-1.5714,-1.5883,-1.6047,-1.6204,-1.6351,-1.6491,-1.6627,-1.6765,-1.6911,-1.7069,-1.7243,-1.7435,-1.7644,-1.7864,-1.8091,-1.8315,-1.8528,-1.8721,-1.8886,-1.9019,-1.9116,-1.9179,-1.921,-1.9216,-1.9202,-1.9177,-1.9145,-1.9112,-1.908,-1.9048,-1.9014,-1.8972,-1.8916,-1.8842,-1.8742,-1.8615,-1.846,-1.8279,-1.8077,-1.7862,-1.7643,-1.7429,-1.7229,-1.7049,-1.6895,-1.6766,-1.666,-1.657,-1.6489,-1.6405,-1.631,-1.6192,-1.6046,-1.5865,-1.5648,-1.5397,-1.5116,-1.4811,-1.4491,-1.4163,-1.3833,-1.3508,-1.3191,-1.2884,-1.2585,-1.2293,-1.2005,-1.1719,-1.1434,-1.1151,-1.0873,-1.0606,-1.0356,-1.0134,-0.99472,-0.98052,-0.97147,-0.96799,-0.97017,-0.97776,-0.99018,-1.0066,-1.0259,-1.047,-1.0689,-1.0906,-1.1116,-1.1315,-1.1503,-1.1683,-1.1859,-1.2039,-1.2229,-1.2435,-1.266,-1.2905,-1.317,-1.3451,-1.3741,-1.4034,-1.4322,-1.4598,-1.4858,-1.5099,-1.532,-1.5524,-1.5714,-1.5896,-1.6075,-1.6256,-1.6442,-1.6632,-1.6826,-1.7018,-1.7202,-1.7371,-1.7517,-1.7632,-1.7711,-1.7752,-1.7755,-1.7726,-1.767,-1.7598,-1.7521,-1.7449,-1.7393,-1.736,-1.7355,-1.738,-1.7433,-1.751,-1.7604,-1.7706,-1.781,-1.7908,-1.7995,-1.8069,-1.8129,-1.8178,-1.8219,-1.8255,-1.8292,-1.833,-1.8371,-1.8413,-1.8452,-1.8479,-1.8487,-1.8466,-1.8409,-1.8306,-1.8153,-1.7947,-1.7688,-1.7379,-1.7025,-1.6632,-1.6207,-1.5754,-1.5278,-1.4778,-1.4254,-1.3699,-1.3106,-1.2466,-1.177,-1.1008,-1.0176,-0.92684,-0.82879,-0.72394,-0.6133,-0.49828,-0.38065,-0.26242,-0.14578,-0.032972,0.073736,0.17214,0.26012,0.33558,0.39651,0.44086,0.46658,0.4716,0.45381,0.41113,0.34161,0.24352,0.11554,-0.043161,-0.23267,-0.45228,-0.70031,-0.97414,-1.2701,-1.5838,-1.91,-2.2428,-2.5762,-2.904,-3.2202,-3.5191,-3.7958,-4.0459,-4.2659,-4.453,-4.6053,-4.7216,-4.8015,-4.845,-4.8528,-4.8261,-4.7663,-4.6756,-4.5563,-4.4114,-4.2441,-4.0582,-3.8576,-3.6467,-3.4298,-3.2113,-2.9954,-2.786,-2.5863,-2.3993,-2.2269,-2.0703,-1.9303,-1.8068,-1.6991,-1.6063,-1.527,-1.4601,-1.4041,-1.3578,-1.3203,-1.2905,-1.2679,-1.2518,-1.2418,-1.2371,-1.237,-1.2409,-1.2476,-1.2561,-1.2652,-1.2738,-1.281,-1.2858,-1.2878,-1.2869,-1.2831,-1.2771,-1.2694,-1.2612,-1.2532,-1.2464,-1.2415,-1.2388,-1.2386,-1.2405,-1.244,-1.2485,-1.253,-1.2567,-1.2589,-1.259,-1.2567,-1.2521,-1.2452,-1.2366,-1.2267,-1.2162,-1.2054,-1.1946,-1.1839,-1.173,-1.1615,-1.1487,-1.1339,-1.1164,-1.0956,-1.0712,-1.043,-1.0113,-0.97686,-0.94039,-0.90301,-0.86586,-0.83001,-0.79641,-0.7657,-0.73822,-0.71392,-0.69248,-0.67326,-0.6555,-0.63836,-0.62109,-0.60312,-0.5841,-0.56401,-0.5431,-0.52188,-0.50105,-0.48136,-0.46354,-0.44818,-0.43566,-0.4261,-0.41935,-0.41501,-0.41253,-0.41126,-0.4106,-0.41007,-0.40938,-0.40851,-0.40767,-0.40734,-0.40813,-0.41071,-0.41573,-0.42365,-0.43473,-0.4489,-0.46579,-0.48473,-0.50479,-0.52494,-0.5441,-0.56128,-0.57571,-0.58689,-0.59468,-0.59924,-0.60106,-0.60085,-0.59944,-0.59768,-0.59629,-0.59582,-0.59656,-0.59852,-0.60145,-0.60487,-0.60821,-0.61087,-0.61233,-0.61225,-0.61056,-0.60742,-0.60328,-0.59879,-0.59471,-0.59184,-0.59087,-0.59232,-0.59642,-0.60314,-0.6121,-0.62268,-0.63409,-0.64543,-0.65582,-0.66457,-0.67118,-0.67547,-0.67758,-0.67792,-0.67718,-0.67617,-0.67574,-0.67665,-0.67949,-0.68459,-0.69197,-0.70137,-0.71225,-0.72391,-0.73556,-0.74644,-0.75593,-0.76363,-0.76941,-0.77344,-0.77615,-0.77815,-0.78019,-0.78301,-0.78725,-0.79338,-0.80163,-0.81195,-0.82406,-0.83748,-0.85163,-0.86592,-0.87987,-0.89318,-0.9058,-0.91797,-0.93018,-0.94316,-0.95772,-0.97475,-0.995,-1.019,-1.0472,-1.0795,-1.1155,-1.1547,-1.1963,-1.2395,-1.2833,-1.327,-1.3702,-1.4125,-1.4541,-1.4953,-1.5367,-1.5787,-1.6222,-1.6676,-1.7153,-1.7653,-1.8174,-1.871,-1.9254,-1.9797,-2.0328,-2.0839,-2.1323,-2.1774,-2.2192,-2.2576,-2.2931,-2.3262,-2.3576,-2.3879,-2.4176,-2.4471,-2.4763,-2.505,-2.5326,-2.5586,-2.5821,-2.6023,-2.6186,-2.6304,-2.6378,-2.6407,-2.6396,-2.6353,-2.6286,-2.6204,-2.6115,-2.6028,-2.5947,-2.5875,-2.581,-2.5749,-2.5688,-2.562,-2.5541,-2.5444,-2.5329,-2.5196,-2.5046,-2.4887,-2.4725,-2.4569,-2.4427,-2.4306,-2.421,-2.4141,-2.4098,-2.4077,-2.407,-2.4068,-2.4065,-2.405,-2.4019,-2.3967,-2.3895,-2.3807,-2.3707,-2.3604,-2.3506,-2.3424,-2.3363,-2.333,-2.3326,-2.3351,-2.34,-2.3468,-2.3546,-2.3628,-2.3705,-2.3773,-2.3829,-2.3872,-2.3905,-2.3932,-2.3961,-2.3997,-2.4047,-2.4116,-2.4206,-2.4316,-2.4444,-2.4585,-2.4731,-2.4875,-2.5009,-2.5128,-2.5229,-2.531,-2.5374,-2.5426,-2.5472,-2.5521,-2.5578,-2.5652,-2.5745,-2.5859,-2.5991,-2.6137,-2.6289,-2.6438,-2.6575,-2.6692,-2.6781,-2.6839,-2.6866,-2.6864,-2.6837,-2.6795,-2.6744,-2.6693,-2.6651,-2.662,-2.6604,-2.6601,-2.6608,-2.6619,-2.6626,-2.6622,-2.66,-2.6556,-2.6485,-2.6388,-2.6268,-2.613,-2.5979,-2.5821,-2.5664,-2.551,-2.5361,-2.5218,-2.5074,-2.4926,-2.4765,-2.4583,-2.4373,-2.4129,-2.3846,-2.3526,-2.3171,-2.2786,-2.238,-2.1963,-2.1545,-2.1134,-2.0739,-2.0363,-2.0009,-1.9676,-1.9359,-1.9053,-1.8752,-1.845,-1.8141,-1.7824,-1.7497,-1.7164,-1.6828,-1.6497,-1.6177,-1.5875,-1.5597,-1.5346,-1.5124,-1.4929,-1.4756,-1.46,-1.4453,-1.431,-1.4165,-1.4014,-1.3857,-1.3695,-1.3535,-1.3382,-1.3245,-1.3132,-1.3052,-1.301,-1.3009,-1.3048,-1.3125,-1.3233,-1.3363,-1.3508,-1.3657,-1.3804,-1.3941,-1.4066,-1.4178,-1.428,-1.4377,-1.4473,-1.4575,-1.4687,-1.4813,-1.4954,-1.5107,-1.5268,-1.5431,-1.5588,-1.5732,-1.5856,-1.5954,-1.6026,-1.6071,-1.6093,-1.6099,-1.6098,-1.6098,-1.6109,-1.6137,-1.6189,-1.6267,-1.6371,-1.6496,-1.6637,-1.6788,-1.694,-1.7087,-1.7223,-1.7345,-1.7454,-1.755,-1.7639,-1.7725,-1.7814,-1.791,-1.8017,-1.8134,-1.8259,-1.8387,-1.8508,-1.8615,-1.8697,-1.8745,-1.8751,-1.8712,-1.8626,-1.8496,-1.8328,-1.813,-1.7912,-1.7684,-1.7458,-1.7239,-1.7035,-1.6846,-1.6673,-1.6511,-1.6356,-1.6202,-1.6041,-1.587,-1.5686,-1.5488,-1.5279,-1.5062,-1.4845,-1.4634,-1.4435,-1.4255,-1.4097,-1.3961,-1.3846,-1.3746,-1.3656,-1.3567,-1.3471,-1.3364,-1.324,-1.3098,-1.294,-1.2771,-1.26,-1.2436,-1.2288,-1.2167,-1.2081,-1.2035,-1.2031,-1.207,-1.2146,-1.2255,-1.2388,-1.2538,-1.2699,-1.2865,-1.3034,-1.3206,-1.3382,-1.3567,-1.3767,-1.3985,-1.4225,-1.4489,-1.4775,-1.5081,-1.5398,-1.5718,-1.6032,-1.6328,-1.6597,-1.6834,-1.7033,-1.7196,-1.7323,-1.7423,-1.7501,-1.7569,-1.7635,-1.7706,-1.779,-1.7888,-1.8,-1.8124,-1.8254,-1.8382,-1.8503,-1.8608,-1.8692,-1.8752,-1.8788,-1.8801,-1.8796,-1.8778,-1.8752,-1.8725,-1.87,-1.8679,-1.8661,-1.8643,-1.8618,-1.8579,-1.8519,-1.8431,-1.8308,-1.8148,-1.7949,-1.7714,-1.7448,-1.7157,-1.685,-1.6534,-1.6216,-1.5902,-1.5594,-1.5294,-1.5,-1.4708,-1.4414,-1.4115,-1.3806,-1.3488,-1.3161,-1.2829,-1.25,-1.2182,-1.1886,-1.1621,-1.1397,-1.122,-1.1094,-1.1019,-1.0992,-1.1006,-1.1052,-1.1119,-1.1198,-1.1278,-1.1353,-1.1419,-1.1475,-1.1523,-1.1568,-1.1619,-1.1684,-1.177,-1.1884,-1.203,-1.221,-1.2422,-1.2661,-1.2922,-1.3195,-1.3474,-1.3752,-1.4022,-1.4283,-1.4534,-1.4776,-1.5014,-1.5253,-1.5496,-1.5747,-1.6009,-1.6281,-1.6558,-1.6836,-1.7107,-1.7361,-1.7591,-1.7788,-1.7949,-1.8069,-1.815,-1.8196,-1.8214,-1.8212,-1.82,-1.8187,-1.8182,-1.8189,-1.821,-1.8246,-1.8293,-1.8344,-1.8392,-1.843,-1.8451,-1.8451,-1.8426,-1.838,-1.8315,-1.8238,-1.8158,-1.8082,-1.802,-1.7977,-1.7956,-1.7959,-1.7982,-1.802,-1.8065,-1.8107,-1.8137,-1.8147,-1.8128,-1.8076,-1.7989,-1.7865,-1.7705,-1.7511,-1.7284,-1.7023,-1.6726,-1.6389,-1.6003,-1.5559,-1.5045,-1.4448,-1.3758,-1.2963,-1.2059,-1.1042,-0.99164,-0.86885,-0.73713,-0.59816,-0.45396,-0.30676,-0.15891,-0.012831,0.12912,0.26462,0.39139,0.50719,0.60975,0.6967,0.76556,0.81371,0.83839,0.83679,0.8061,0.74371,0.64737,0.51536,0.34669,0.14129,-0.099895,-0.37479,-0.68023,-1.012,-1.3649,-1.7331,-2.1101,-2.4893,-2.8639,-3.2274,-3.5737,-3.8971,-4.1927,-4.4563,-4.6844,-4.8742,-5.0236,-5.1313,-5.1967,-5.2196,-5.2007,-5.1415,-5.044,-4.9109,-4.746,-4.5532,-4.3375,-4.1041,-3.8585,-3.6064,-3.3532,-3.1042,-2.864,-2.6365,-2.4249,-2.2316,-2.0578,-1.9043,-1.7709,-1.6572,-1.562,-1.4841,-1.4222,-1.3749,-1.3408,-1.3187,-1.3072,-1.3052,-1.3115,-1.3246,-1.3431,-1.3653,-1.3896,-1.4141,-1.4372,-1.4571,-1.4725,-1.4823,-1.486,-1.4834,-1.4746,-1.4604,-1.4417,-1.4196,-1.3955,-1.3705,-1.3455,-1.3212,-1.298,-1.276,-1.2549,-1.2343,-1.2137,-1.1926,-1.1705,-1.1473,-1.1229,-1.0977,-1.072,-1.0465,-1.022,-0.99909,-0.97825,-0.95981,-0.94381,-0.93001,-0.9179,-0.90679,-0.89588,-0.88438,-0.87159,-0.85699,-0.84035,-0.82166,-0.80125,-0.77962,-0.75746,-0.73547,-0.71433,-0.69455,-0.67642,-0.65997,-0.64496,-0.63094,-0.61728,-0.60331,-0.58839,-0.57205,-0.55405,-0.53441,-0.51347,-0.49183,-0.47029,-0.44976,-0.43117,-0.41531,-0.40276,-0.39383,-0.38849,-0.38639,-0.38695,-0.38936,-0.39277,-0.39636,-0.39947,-0.40165,-0.40276,-0.40294,-0.40261,-0.40236,-0.4029,-0.40491,-0.40893,-0.41531,-0.42411,-0.43508,-0.44771,-0.46126,-0.47488,-0.4877,-0.49895,-0.50806,-0.51472,-0.51893,-0.52097,-0.52137,-0.52082,-0.52006,-0.51978,-0.5205,-0.52253,-0.52587,-0.53025,-0.53516,-0.5399,-0.5437,-0.54584,-0.54572,-0.54301,-0.53764,-0.52987,-0.52024,-0.5095,-0.49855,-0.48827,-0.47947,-0.47276,-0.46848,-0.46668,-0.46713,-0.46935,-0.47272,-0.47651,-0.48005,-0.48282,-0.48448,-0.48494,-0.48438,-0.4832,-0.48195,-0.48123,-0.48163,-0.48359,-0.48733,-0.49281,-0.49972,-0.50751,-0.51544,-0.52269,-0.52847,-0.53214,-0.53326,-0.53171,-0.52766,-0.52158,-0.51421,-0.50641,-0.4991,-0.49314,-0.48925,-0.48788,-0.48925,-0.49328,-0.49969,-0.50802,-0.51777,-0.52845,-0.53974,-0.55154,-0.56398,-0.57749,-0.5927,-0.61042,-0.6315,-0.65674,-0.68675,-0.7219,-0.76224,-0.80746,-0.85693,-0.90979,-0.96498,-1.0214,-1.0781,-1.1342,-1.1891,-1.2425,-1.2946,-1.3456,-1.396,-1.4464,-1.4975,-1.5496,-1.603,-1.6577,-1.7134,-1.7696,-1.8253,-1.8798,-1.9322,-1.9818,-2.0279,-2.0703,-2.1091,-2.1445,-2.1772,-2.2079,-2.2372,-2.2661,-2.295,-2.3241,-2.3536,-2.3831,-2.4121,-2.4398,-2.4654,-2.4881,-2.5072,-2.5223,-2.5332,-2.54,-2.543,-2.543,-2.5406,-2.5365,-2.5316,-2.5262,-2.5207,-2.515,-2.5091,-2.5024,-2.4945,-2.4848,-2.4729,-2.4584,-2.4414,-2.422,-2.4008,-2.3784,-2.3558,-2.3338,-2.3134,-2.2952,-2.2796,-2.2667,-2.2563,-2.248,-2.241,-2.2344,-2.2274,-2.2192,-2.2092,-2.197,-2.1827,-2.1666,-2.1493,-2.1314,-2.1139,-2.0976,-2.083,-2.0706,-2.0606,-2.0527,-2.0465,-2.0413,-2.0364,-2.031,-2.0245,-2.0163,-2.0063,-1.9946,-1.9814,-1.9675,-1.9534,-1.94,-1.9279,-1.9176,-1.9093,-1.9031,-1.8986,-1.8954,-1.8927,-1.89,-1.8866,-1.8821,-1.8761,-1.8688,-1.8605,-1.8518,-1.8435,-1.8364,-1.8313,-1.829,-1.8297,-1.8339,-1.8412,-1.8513,-1.8635,-1.8771,-1.8912,-1.9051,-1.9184,-1.9306,-1.9418,-1.9522,-1.9622,-1.9725,-1.9836,-1.9962,-2.0106,-2.0269,-2.0449,-2.0643,-2.0843,-2.1041,-2.1228,-2.1394,-2.1532,-2.1637,-2.1706,-2.174,-2.1742,-2.1718,-2.1673,-2.1615,-2.1549,-2.1478,-2.1405,-2.1328,-2.1244,-2.1147,-2.103,-2.0886,-2.0711,-2.05,-2.0253,-1.9972,-1.9663,-1.9333,-1.8992,-1.865,-1.8318,-1.8004,-1.7713,-1.7449,-1.7209,-1.6991,-1.6787,-1.659,-1.6391,-1.6182,-1.5958,-1.5715,-1.5452,-1.5172,-1.488,-1.4582,-1.4287,-1.4002,-1.3732,-1.3482,-1.3252,-1.3042,-1.2848,-1.2664,-1.2484,-1.2302,-1.2113,-1.1914,-1.1705,-1.1489,-1.127,-1.1056,-1.0856,-1.0678,-1.0529,-1.0415,-1.0338,-1.0299,-1.0293,-1.0316,-1.0359,-1.0416,-1.0478,-1.0538,-1.0594,-1.0643,-1.0687,-1.0728,-1.0773,-1.0825,-1.0892,-1.0976,-1.1079,-1.12,-1.1337,-1.1484,-1.1632,-1.1775,-1.1904,-1.2012,-1.2096,-1.2154,-1.2187,-1.2201,-1.2203,-1.22,-1.2203,-1.222,-1.2258,-1.232,-1.2407,-1.2519,-1.2649,-1.2791,-1.2936,-1.3078,-1.3207,-1.3321,-1.3415,-1.3492,-1.3553,-1.3605,-1.3653,-1.3706,-1.3768,-1.3846,-1.394,-1.405,-1.4173,-1.4304,-1.4435,-1.456,-1.4671,-1.4764,-1.4834,-1.4882,-1.4909,-1.492,-1.492,-1.4917,-1.4915,-1.492,-1.4935,-1.496,-1.4992,-1.5026,-1.5054,-1.5071,-1.5066,-1.5035,-1.4973,-1.4879,-1.4755,-1.4604,-1.4435,-1.4255,-1.4074,-1.3901,-1.3741,-1.3599,-1.3477,-1.3373,-1.3282,-1.3201,-1.3121,-1.3038,-1.2946,-1.2844,-1.2733,-1.2615,-1.2497,-1.2386,-1.2292,-1.2222,-1.2183,-1.2179,-1.2213,-1.2282,-1.2381,-1.2501,-1.2633,-1.2766,-1.2891,-1.2999,-1.3085,-1.3147,-1.3187,-1.3207,-1.3217,-1.3223,-1.3234,-1.3259,-1.3301,-1.3366,-1.3453,-1.356,-1.3682,-1.3812,-1.3944,-1.4072,-1.4189,-1.4293,-1.4383,-1.446,-1.4529,-1.4595,-1.4662,-1.4734,-1.4816,-1.4908,-1.5008,-1.5112,-1.5213,-1.5305,-1.5378,-1.5426,-1.5444,-1.5429,-1.5381,-1.5303,-1.5203,-1.509,-1.4972,-1.4859,-1.476,-1.4682,-1.4627,-1.4596,-1.4586,-1.459,-1.4601,-1.461,-1.461,-1.4594,-1.4557,-1.4498,-1.4417,-1.4318,-1.4207,-1.409,-1.3974,-1.3862,-1.3759,-1.3664,-1.3576,-1.3489,-1.3397,-1.3292,-1.3166,-1.3013,-1.2828,-1.2608,-1.2356,-1.2074,-1.1769,-1.1448,-1.1119,-1.079,-1.0466,-1.0152,-0.98487,-0.9555,-0.9268,-0.89831,-0.86956,-0.84017,-0.80988,-0.77872,-0.74698,-0.71527,-0.68441,-0.65543,-0.6294,-0.60737,-0.59021,-0.57853,-0.57259,-0.57232,-0.57728,-0.58676,-0.59985,-0.61555,-0.63292,-0.65117,-0.66974,-0.68836,-0.7071,-0.72626,-0.74639,-0.76814,-0.79215,-0.81898,-0.84898,-0.88223,-0.91853,-0.9574,-0.99815,-1.04,-1.082,-1.1236,-1.1641,-1.2034,-1.2413,-1.2781,-1.3145,-1.3508,-1.3878,-1.4261,-1.4659,-1.5073,-1.5501,-1.5937,-1.6374,-1.6801,-1.7207,-1.7582,-1.7916,-1.8202,-1.8438,-1.8621,-1.8757,-1.8848,-1.8904,-1.8932,-1.894,-1.8933,-1.8917,-1.8893,-1.886,-1.8816,-1.8756,-1.8678,-1.8576,-1.8448,-1.8296,-1.8121,-1.7929,-1.7727,-1.7524,-1.7329,-1.715,-1.6993,-1.6862,-1.6757,-1.6676,-1.6612,-1.6557,-1.6503,-1.6438,-1.6356,-1.6248,-1.6113,-1.5947,-1.5754,-1.5535,-1.5296,-1.504,-1.477,-1.4488,-1.419,-1.3871,-1.3521,-1.313,-1.2682,-1.2163,-1.1559,-1.0857,-1.0048,-0.91256,-0.80892,-0.6942,-0.56914,-0.43483,-0.29267,-0.14422,0.0088731,0.16489,0.3221,0.47875,0.63304,0.78301,0.9265,1.0611,1.1839,1.292,1.3817,1.4494,1.4912,1.5033,1.4822,1.4247,1.3283,1.1916,1.0139,0.79585,0.53901,0.2462,-0.078765,-0.4312,-0.80566,-1.1962,-1.5965,-2,-2.4004,-2.7911,-3.166,-3.5194,-3.8457,-4.1401,-4.3982,-4.616,-4.7907,-4.9198,-5.002,-5.037,-5.0252,-4.9686,-4.8698,-4.7328,-4.5621,-4.3634,-4.1424,-3.9055,-3.659,-3.4088,-3.1605,-2.9191,-2.6887,-2.4727,-2.2735,-2.0929,-1.9317,-1.7904,-1.6689,-1.5668,-1.4833,-1.4176,-1.3687,-1.3355,-1.3167,-1.3108,-1.3163,-1.3311,-1.3533,-1.3806,-1.4106,-1.441,-1.4696,-1.4942,-1.5133,-1.5256,-1.5305,-1.5279,-1.518,-1.5017,-1.4801,-1.4543,-1.4258,-1.3957,-1.365,-1.3345,-1.3045,-1.2752,-1.2463,-1.2178,-1.1891,-1.1601,-1.1307,-1.1009,-1.0711,-1.0417,-1.0135,-0.9873,-0.96375,-0.94348,-0.92685,-0.91392,-0.90443,-0.8978,-0.8932,-0.88962,-0.88598,-0.88128,-0.87468,-0.86556,-0.85363,-0.83891,-0.82169,-0.80247,-0.78186,-0.7605,-0.73892,-0.71749,-0.69635,-0.67538,-0.65427,-0.63252,-0.60957,-0.58489,-0.55809,-0.52896,-0.49762,-0.46446,-0.43016,-0.39561,-0.36184,-0.32989,-0.30068,-0.27496,-0.25316,-0.23537,-0.22137,-0.21061,-0.20234,-0.1957,-0.18982,-0.18395,-0.17755,-0.17035,-0.16239,-0.15397,-0.14559,-0.1379,-0.13155,-0.1271,-0.12492,-0.12512,-0.12753,-0.1317,-0.13696,-0.14249,-0.14747,-0.15114,-0.15295,-0.15264,-0.15025,-0.14617,-0.14107,-0.13582,-0.1314,-0.12876,-0.12873,-0.13187,-0.13845,-0.14841,-0.16138,-0.17669,-0.19355,-0.21109,-0.22847,-0.24503,-0.26031,-0.27412,-0.28653,-0.29785,-0.30852,-0.31905,-0.32989,-0.34139,-0.35366,-0.36657,-0.37978,-0.39272,-0.40469,-0.41496,-0.42287,-0.42792,-0.42985,-0.4287,-0.42481,-0.41881,-0.41152,-0.40388,-0.39681,-0.39112,-0.3874,-0.38596,-0.38678,-0.38953,-0.39365,-0.39836,-0.40287,-0.4064,-0.40834,-0.40832,-0.40625,-0.40234,-0.39705,-0.39104,-0.38506,-0.37986,-0.37604,-0.37403,-0.37398,-0.37576,-0.37899,-0.3831,-0.38743,-0.39132,-0.39425,-0.39589,-0.3962,-0.39545,-0.39418,-0.39316,-0.39333,-0.39564,-0.40098,-0.41004,-0.42328,-0.44083,-0.46253,-0.48794,-0.5164,-0.54716,-0.57947,-0.61268,-0.64633,-0.68021,-0.71437,-0.74911,-0.7849,-0.82233,-0.86196,-0.90427,-0.9495,-0.99768,-1.0485,-1.1015,-1.1558,-1.2106,-1.2649,-1.3179,-1.369,-1.4177,-1.4639,-1.5078,-1.5497,-1.5903,-1.6301,-1.6699,-1.71,-1.7506,-1.7918,-1.8332,-1.8742,-1.9139,-1.9515,-1.9862,-2.0171,-2.0437,-2.0658,-2.0835,-2.0973,-2.1079,-2.116,-2.1228,-2.1291,-2.1356,-2.1428,-2.1511,-2.1601,-2.1696,-2.179,-2.1876,-2.1948,-2.1999,-2.2027,-2.2032,-2.2014,-2.198,-2.1936,-2.189,-2.185,-2.1824,-2.1815,-2.1826,-2.1855,-2.19,-2.1952,-2.2004,-2.2047,-2.2075,-2.208,-2.2059,-2.2012,-2.1941,-2.1851,-2.1751,-2.1647,-2.1548,-2.146,-2.1387,-2.1332,-2.1294,-2.1268,-2.1247,-2.1226,-2.1196,-2.1151,-2.1086,-2.0998,-2.0889,-2.0761,-2.0621,-2.0476,-2.0333,-2.02,-2.0082,-1.9982,-1.9902,-1.9837,-1.9784,-1.9736,-1.9684,-1.9622,-1.9545,-1.9449,-1.9333,-1.9202,-1.9061,-1.8917,-1.8779,-1.8658,-1.856,-1.8493,-1.8459,-1.8458,-1.8488,-1.8543,-1.8614,-1.8695,-1.8775,-1.885,-1.8914,-1.8965,-1.9005,-1.9036,-1.9064,-1.9095,-1.9133,-1.9184,-1.9249,-1.9327,-1.9416,-1.9509,-1.9598,-1.9675,-1.9731,-1.9758,-1.9752,-1.9711,-1.9634,-1.9527,-1.9395,-1.9246,-1.909,-1.8935,-1.8786,-1.8649,-1.8524,-1.8411,-1.8306,-1.8202,-1.8094,-1.7975,-1.784,-1.7686,-1.7511,-1.7319,-1.7112,-1.6898,-1.6682,-1.6472,-1.6271,-1.6084,-1.591,-1.5747,-1.559,-1.5431,-1.5262,-1.5075,-1.4863,-1.4622,-1.4351,-1.4051,-1.373,-1.3394,-1.3057,-1.2728,-1.2421,-1.2144,-1.1904,-1.1705,-1.1548,-1.1428,-1.1338,-1.1271,-1.1216,-1.1165,-1.1109,-1.1043,-1.0965,-1.0874,-1.0773,-1.0666,-1.0561,-1.046,-1.037,-1.0291,-1.0226,-1.0171,-1.0122,-1.0075,-1.0023,-0.99616,-0.98871,-0.9798,-0.96956,-0.95838,-0.9469,-0.9359,-0.92626,-0.9188,-0.91421,-0.91293,-0.91511,-0.92059,-0.92889,-0.93928,-0.95088,-0.96276,-0.97406,-0.98407,-0.99238,-0.99883,-1.0036,-1.0072,-1.0101,-1.0132,-1.0172,-1.0226,-1.0299,-1.0392,-1.0503,-1.0629,-1.0761,-1.0894,-1.102,-1.1131,-1.1225,-1.1299,-1.1353,-1.1393,-1.1424,-1.1454,-1.149,-1.154,-1.1608,-1.1696,-1.1805,-1.1929,-1.2063,-1.2197,-1.2323,-1.2433,-1.2517,-1.2572,-1.2595,-1.2587,-1.2553,-1.2499,-1.2432,-1.2361,-1.2294,-1.2236,-1.2189,-1.2155,-1.2131,-1.211,-1.2088,-1.2056,-1.2006,-1.1935,-1.1837,-1.1714,-1.1566,-1.1398,-1.1217,-1.103,-1.0845,-1.0666,-1.05,-1.0347,-1.0206,-1.0075,-0.99483,-0.98208,-0.9687,-0.95426,-0.93855,-0.92163,-0.90385,-0.8858,-0.8683,-0.85227,-0.83865,-0.82823,-0.82164,-0.81918,-0.82082,-0.82622,-0.83473,-0.8455,-0.8576,-0.87008,-0.88214,-0.8932,-0.90294,-0.91137,-0.91876,-0.92558,-0.93245,-0.93998,-0.94871,-0.95897,-0.97083,-0.98406,-0.99817,-1.0124,-1.0259,-1.0378,-1.0472,-1.0534,-1.0563,-1.0556,-1.0518,-1.0454,-1.0373,-1.0285,-1.0197,-1.012,-1.0058,-1.0016,-0.99937,-0.99894,-0.99985,-1.0015,-1.0033,-1.0047,-1.0052,-1.0048,-1.0036,-1.0017,-0.99993,-0.99877,-0.99894,-1.001,-1.0055,-1.0123,-1.0216,-1.0327,-1.045,-1.0576,-1.0696,-1.08,-1.0881,-1.0933,-1.0954,-1.0944,-1.0908,-1.0852,-1.0782,-1.0706,-1.0631,-1.056,-1.0497,-1.0441,-1.0388,-1.0334,-1.027,-1.0191,-1.0091,-0.99648,-0.98116,-0.96329,-0.94332,-0.92195,-0.90007,-0.87864,-0.85857,-0.84065,-0.82541,-0.8131,-0.80364,-0.79669,-0.79166,-0.78783,-0.78444,-0.78084,-0.77653,-0.77129,-0.76514,-0.75842,-0.75167,-0.74559,-0.7409,-0.73828,-0.73823,-0.74102,-0.74661,-0.7547,-0.76472,-0.77592,-0.78747,-0.79857,-0.80855,-0.81698,-0.82369,-0.82881,-0.83274,-0.83612,-0.83967,-0.84416,-0.85025,-0.85842,-0.86889,-0.88159,-0.89618,-0.91208,-0.92857,-0.94485,-0.96022,-0.97409,-0.98612,-0.99626,-1.0047,-1.012,-1.0187,-1.0255,-1.0332,-1.0423,-1.0532,-1.0658,-1.08,-1.0952,-1.1108,-1.1258,-1.1396,-1.1513,-1.1606,-1.1671,-1.171,-1.1727,-1.1727,-1.1718,-1.1708,-1.1705,-1.1714,-1.1738,-1.1777,-1.1828,-1.1887,-1.1945,-1.1994,-1.2028,-1.2039,-1.2024,-1.1983,-1.1918,-1.1834,-1.1738,-1.1638,-1.1545,-1.1464,-1.1402,-1.1361,-1.134,-1.1337,-1.1344,-1.1354,-1.1359,-1.135,-1.1321,-1.1268,-1.1189,-1.1086,-1.0961,-1.0821,-1.0672,-1.052,-1.037,-1.0225,-1.0086,-0.99489,-0.98104,-0.96634,-0.95007,-0.9315,-0.91006,-0.88541,-0.85752,-0.82668,-0.79351,-0.75889,-0.72387,-0.68955,-0.65697,-0.62699,-0.60018,-0.57679,-0.55673,-0.53958,-0.5247,-0.51127,-0.49842,-0.48537,-0.47148,-0.45635,-0.43982,-0.422,-0.40319,-0.38381,-0.36435,-0.34522,-0.3267,-0.30888,-0.29165,-0.27469,-0.25754,-0.23967,-0.22059,-0.19994,-0.17758,-0.15367,-0.12865,-0.10328,-0.078577,-0.055699,-0.035863,-0.020216,-0.0097168,-0.0050454,-0.0065448,-0.014198,-0.027653,-0.046281,-0.069279,-0.095773,-0.12493,-0.15609,-0.18878,-0.22283,-0.25833,-0.2956,-0.3351,-0.37733,-0.42275,-0.47162,-0.52398,-0.57953,-0.63769,-0.69761,-0.75823,-0.8184,-0.877,-0.93302,-0.98569,-1.0345,-1.0793,-1.1202,-1.1576,-1.1919,-1.2238,-1.2537,-1.2819,-1.3087,-1.3338,-1.3572,-1.3781,-1.3961,-1.4106,-1.4212,-1.4276,-1.4298,-1.4282,-1.4233,-1.4161,-1.4076,-1.3987,-1.3905,-1.3838,-1.3789,-1.3763,-1.3755,-1.3763,-1.3777,-1.3791,-1.3794,-1.3779,-1.3739,-1.3671,-1.3574,-1.3451,-1.3307,-1.3148,-1.2983,-1.2817,-1.2658,-1.2508,-1.2368,-1.2237,-1.211,-1.1981,-1.1843,-1.1689,-1.1513,-1.131,-1.108,-1.0821,-1.0536,-1.0227,-0.98979,-0.95512,-0.91874,-0.88044,-0.8397,-0.79566,-0.74719,-0.69291,-0.63135,-0.56106,-0.48075,-0.38944,-0.28654,-0.17196,-0.046094,0.090152,0.23544,0.38807,0.54607,0.70729,0.86947,1.0303,1.1875,1.3386,1.4813,1.613,1.7309,1.8321,1.9135,1.9717,2.0031,2.0043,1.9717,1.9024,1.7937,1.6439,1.4522,1.2188,0.94528,0.63438,0.29005,-0.082633,-0.47771,-0.88851,-1.3079,-1.7286,-2.1433,-2.5451,-2.9273,-3.2841,-3.61,-3.9006,-4.152,-4.3612,-4.526,-4.6449,-4.7173,-4.7434,-4.7242,-4.6615,-4.5583,-4.4181,-4.2453,-4.0452,-3.8234,-3.5859,-3.3388,-3.0881,-2.8396,-2.5983,-2.3687,-2.1541,-1.9573,-1.7798,-1.6223,-1.485,-1.3671,-1.2675,-1.1849,-1.1179,-1.0647,-1.0241,-0.99447,-0.9746,-0.96318,-0.95889,-0.96038,-0.96618,-0.97476,-0.98445,-0.9936,-1.0006,-1.0039,-1.0024,-0.99514,-0.98171,-0.96206,-0.93663,-0.90623,-0.87195,-0.83507,-0.79693,-0.75875,-0.7216,-0.68622,-0.65305,-0.62221,-0.59353,-0.56661,-0.54096,-0.51608,-0.49155,-0.46711,-0.44271,-0.41854,-0.39492,-0.37235,-0.35132,-0.33227,-0.31546,-0.30094,-0.28843,-0.27738,-0.26698,-0.25625,-0.24411,-0.22952,-0.2116,-0.18976,-0.1637,-0.13355,-0.09979,-0.063224,-0.024904,0.013998,0.052309,0.088972,0.12315,0.15429,0.18213,0.20672,0.22833,0.24739,0.26437,0.27972,0.29374,0.30657,0.31816,0.32826,0.3365,0.34246,0.34576,0.34616,0.34363,0.33841,0.33103,0.32225,0.31306,0.30453,0.29772,0.29355,0.29272,0.2956,0.3022,0.31217,0.32484,0.3393,0.3545,0.36937,0.38294,0.39446,0.40341,0.40962,0.41321,0.41454,0.41415,0.41268,0.41072,0.40874,0.40702,0.40561,0.40429,0.40268,0.40024,0.39642,0.39071,0.38276,0.37244,0.35989,0.34551,0.32995,0.31399,0.29849,0.28427,0.27201,0.26212,0.25476,0.24978,0.24674,0.24503,0.24386,0.24249,0.24025,0.23666,0.23153,0.22495,0.21727,0.20909,0.20115,0.19424,0.18905,0.18612,0.18572,0.18784,0.19215,0.19806,0.20481,0.21151,0.21734,0.2216,0.22382,0.22382,0.22174,0.218,0.21326,0.2083,0.20395,0.20093,0.19978,0.20077,0.20387,0.20876,0.21487,0.22144,0.22765,0.23272,0.236,0.23702,0.2356,0.23182,0.22595,0.21845,0.20983,0.20058,0.19103,0.18132,0.17132,0.16063,0.14863,0.13453,0.11748,0.096679,0.07147,0.041466,0.0065916,-0.032882,-0.076361,-0.12298,-0.17169,-0.22138,-0.271,-0.31964,-0.36668,-0.41178,-0.45493,-0.4964,-0.53669,-0.57645,-0.61631,-0.65683,-0.6984,-0.74112,-0.78487,-0.82925,-0.87365,-0.91736,-0.95967,-0.99994,-1.0377,-1.0728,-1.1052,-1.1354,-1.1639,-1.1913,-1.2185,-1.2461,-1.2748,-1.3047,-1.336,-1.3684,-1.4013,-1.434,-1.4657,-1.4957,-1.5231,-1.5475,-1.5686,-1.5864,-1.6014,-1.6139,-1.6247,-1.6344,-1.6436,-1.6528,-1.6621,-1.6715,-1.6807,-1.6892,-1.6964,-1.7016,-1.7044,-1.7045,-1.7017,-1.6962,-1.6887,-1.6797,-1.6703,-1.6612,-1.6535,-1.6477,-1.6442,-1.6432,-1.6443,-1.6469,-1.6501,-1.6531,-1.6547,-1.6542,-1.6508,-1.6443,-1.6345,-1.6218,-1.6068,-1.5903,-1.5732,-1.5564,-1.5406,-1.5264,-1.514,-1.5033,-1.4941,-1.4859,-1.4781,-1.4701,-1.4615,-1.4521,-1.4417,-1.4308,-1.4197,-1.4092,-1.4,-1.3927,-1.3881,-1.3864,-1.3878,-1.3921,-1.3986,-1.4067,-1.4154,-1.4239,-1.4312,-1.4366,-1.4397,-1.4404,-1.439,-1.4359,-1.432,-1.4281,-1.4251,-1.4237,-1.4244,-1.4277,-1.4333,-1.441,-1.4504,-1.4606,-1.471,-1.4808,-1.4895,-1.4969,-1.5027,-1.5072,-1.5108,-1.5139,-1.5171,-1.5208,-1.5251,-1.5303,-1.5361,-1.5418,-1.547,-1.5506,-1.5519,-1.5502,-1.5448,-1.5354,-1.5222,-1.5054,-1.4858,-1.4642,-1.4417,-1.4193,-1.3977,-1.3779,-1.36,-1.3442,-1.3303,-1.3178,-1.306,-1.2941,-1.2816,-1.2678,-1.2524,-1.2353,-1.2168,-1.1971,-1.1769,-1.1568,-1.1374,-1.1191,-1.1022,-1.0866,-1.072,-1.0579,-1.0436,-1.0284,-1.0114,-0.9922,-0.97034,-0.94581,-0.91891,-0.89026,-0.8607,-0.83125,-0.80297,-0.77687,-0.75372,-0.73406,-0.71809,-0.70564,-0.69627,-0.68927,-0.68378,-0.67892,-0.67387,-0.66799,-0.66087,-0.65236,-0.64258,-0.63184,-0.62058,-0.6093,-0.59839,-0.58813,-0.57858,-0.56958,-0.56076,-0.55155,-0.54134,-0.52951,-0.51555,-0.49916,-0.48033,-0.45936,-0.43682,-0.41358,-0.39065,-0.36911,-0.34998,-0.3341,-0.32206,-0.3141,-0.31013,-0.30973,-0.31223,-0.31678,-0.32249,-0.32855,-0.33429,-0.33932,-0.34349,-0.34697,-0.35014,-0.35353,-0.35776,-0.36336,-0.37076,-0.38013,-0.3914,-0.40421,-0.41801,-0.43204,-0.44552,-0.45769,-0.46796,-0.47595,-0.4816,-0.48509,-0.48693,-0.48777,-0.48839,-0.48956,-0.49192,-0.49589,-0.50161,-0.50892,-0.51735,-0.5262,-0.53463,-0.54175,-0.54677,-0.54907,-0.54834,-0.54454,-0.53801,-0.52934,-0.51934,-0.50895,-0.49907,-0.49051,-0.48387,-0.47943,-0.47721,-0.47691,-0.47797,-0.47971,-0.48138,-0.48229,-0.4819,-0.47991,-0.47628,-0.47124,-0.46521,-0.45878,-0.45257,-0.44716,-0.44298,-0.44024,-0.43893,-0.43876,-0.43927,-0.43983,-0.43979,-0.43857,-0.43573,-0.43108,-0.42472,-0.41703,-0.40869,-0.40052,-0.39349,-0.3885,-0.38635,-0.3876,-0.3925,-0.40095,-0.41256,-0.42664,-0.44233,-0.45869,-0.47483,-0.48997,-0.50358,-0.5154,-0.52543,-0.53394,-0.54135,-0.54821,-0.55502,-0.56217,-0.56986,-0.57806,-0.58645,-0.5945,-0.60151,-0.60672,-0.6094,-0.60898,-0.60513,-0.59781,-0.58734,-0.57435,-0.55971,-0.54447,-0.52972,-0.51648,-0.50559,-0.4976,-0.49275,-0.49095,-0.4918,-0.49468,-0.49885,-0.50353,-0.50806,-0.51194,-0.51494,-0.51706,-0.51857,-0.51989,-0.52155,-0.52408,-0.52788,-0.53317,-0.53987,-0.54764,-0.55586,-0.56367,-0.57009,-0.57413,-0.5749,-0.57174,-0.56428,-0.55253,-0.53685,-0.51796,-0.4968,-0.47448,-0.45213,-0.43077,-0.41122,-0.39404,-0.37944,-0.36735,-0.35744,-0.3492,-0.34203,-0.33536,-0.32873,-0.32185,-0.31465,-0.30727,-0.29999,-0.29321,-0.28734,-0.28271,-0.27946,-0.27754,-0.27664,-0.2762,-0.2755,-0.27371,-0.27,-0.26367,-0.25421,-0.24142,-0.22545,-0.20676,-0.18612,-0.16455,-0.14314,-0.12299,-0.10507,-0.090129,-0.078582,-0.070519,-0.065692,-0.06358,-0.063468,-0.064562,-0.066114,-0.067527,-0.06844,-0.068775,-0.068751,-0.068842,-0.069699,-0.072057,-0.076617,-0.083944,-0.094368,-0.10794,-0.12439,-0.1432,-0.16363,-0.1848,-0.20586,-0.22603,-0.24476,-0.26174,-0.27699,-0.29079,-0.30368,-0.31634,-0.32947,-0.34372,-0.35956,-0.37721,-0.39658,-0.41731,-0.43876,-0.46013,-0.48054,-0.49915,-0.51525,-0.52839,-0.53839,-0.5454,-0.54986,-0.55241,-0.55386,-0.55501,-0.55661,-0.55921,-0.5631,-0.56831,-0.57458,-0.58143,-0.5882,-0.59422,-0.59885,-0.60159,-0.6022,-0.60069,-0.59735,-0.59269,-0.58743,-0.58231,-0.57806,-0.57526,-0.57424,-0.57506,-0.57747,-0.58096,-0.58478,-0.5881,-0.59005,-0.58989,-0.58706,-0.58129,-0.57262,-0.56138,-0.54815,-0.53366,-0.51871,-0.50404,-0.49021,-0.47754,-0.46604,-0.45545,-0.44524,-0.43471,-0.42307,-0.40959,-0.39369,-0.37505,-0.35367,-0.32986,-0.30429,-0.27785,-0.25161,-0.22665,-0.20396,-0.18436,-0.16835,-0.15614,-0.14759,-0.14228,-0.13956,-0.1387,-0.13891,-0.13955,-0.1401,-0.1403,-0.14011,-0.13971,-0.13939,-0.13956,-0.14054,-0.14256,-0.14564,-0.14958,-0.15395,-0.15809,-0.16125,-0.16263,-0.16153,-0.15742,-0.15005,-0.1395,-0.1262,-0.11089,-0.094568,-0.078398,-0.063566,-0.05118,-0.042142,-0.037071,-0.036249,-0.039615,-0.046796,-0.057183,-0.070022,-0.084536,-0.10002,-0.11595,-0.13201,-0.14819,-0.16466,-0.18183,-0.20018,-0.22019,-0.24223,-0.26649,-0.29288,-0.32103,-0.35029,-0.3798,-0.40855,-0.43551,-0.45973,-0.48043,-0.49712,-0.50959,-0.51794,-0.52258,-0.52407,-0.52311,-0.52039,-0.5165,-0.51181,-0.50649,-0.50041,-0.49322,-0.4844,-0.47333,-0.45943,-0.44224,-0.42152,-0.39732,-0.37001,-0.34023,-0.30891,-0.27709,-0.24588,-0.2163,-0.18919,-0.16513,-0.14437,-0.12686,-0.11225,-0.099972,-0.089368,-0.079764,-0.070595,-0.061497,-0.052362,-0.043365,-0.034943,-0.027736,-0.022502,-0.020008,-0.020929,-0.02574,-0.034658,-0.047604,-0.06421,-0.083862,-0.10578,-0.12913,-0.15309,-0.17698,-0.20035,-0.22297,-0.24487,-0.26629,-0.28764,-0.30936,-0.33186,-0.35541,-0.38004,-0.40553,-0.43138,-0.45682,-0.48096,-0.50278,-0.52133,-0.53581,-0.54565,-0.55062,-0.55085,-0.5468,-0.53924,-0.52911,-0.51747,-0.50536,-0.49364,-0.48297,-0.47371,-0.46593,-0.45942,-0.45378,-0.44851,-0.4431,-0.43716,-0.43052,-0.42323,-0.41564,-0.40833,-0.40206,-0.3977,-0.39605,-0.39781,-0.40343,-0.41304,-0.42646,-0.44316,-0.46234,-0.48302,-0.50412,-0.52461,-0.5436,-0.56042,-0.57468,-0.58627,-0.59533,-0.60217,-0.60716,-0.61064,-0.61278,-0.6135,-0.61242,-0.60885,-0.60178,-0.58999,-0.57214,-0.54685,-0.5129,-0.46925,-0.41522,-0.35044,-0.27496,-0.18914,-0.093653,0.010641,0.12276,0.24167,0.36639,0.49598,0.62953,0.76613,0.90478,1.0443,1.1831,1.3193,1.4506,1.5739,1.686,1.783,1.8609,1.9155,1.9427,1.9389,1.9008,1.8259,1.7126,1.5601,1.3686,1.1396,0.87504,0.57818,0.25285,-0.096407,-0.46451,-0.84593,-1.2348,-1.625,-2.0104,-2.3845,-2.7411,-3.0741,-3.3777,-3.6464,-3.8755,-4.0611,-4.1999,-4.2902,-4.331,-4.323,-4.2679,-4.1686,-4.0293,-3.855,-3.6513,-3.4243,-3.1802,-2.9253,-2.6652,-2.4054,-2.1505,-1.9043,-1.6703,-1.4508,-1.2478,-1.0626,-0.89621,-0.74915,-0.62166,-0.5137,-0.42492,-0.35471,-0.30212,-0.26584,-0.24419,-0.23517,-0.23643,-0.24542,-0.25944,-0.27584,-0.29207,-0.30593,-0.31562,-0.31984,-0.31785,-0.30949,-0.29506,-0.27529,-0.25121,-0.22394,-0.19465,-0.16436,-0.13386,-0.10371,-0.074151,-0.045215,-0.016743,0.011507,0.039767,0.068177,0.096718,0.12518,0.15316,0.18012,0.20545,0.22853,0.24884,0.26609,0.28019,0.29136,0.30007,0.30705,0.31314,0.31926,0.32627,0.33485,0.34546,0.35827,0.37314,0.38966,0.4072,0.42501,0.44233,0.45846,0.47291,0.48541,0.49595,0.50478,0.51237,0.5193,0.5262,0.53363,0.54198,0.55141,0.56182,0.57282,0.58383,0.59408,0.60276,0.60911,0.61254,0.61267,0.60947,0.60317,0.59434,0.58373,0.57227,0.56089,0.55042,0.5415,0.53453,0.52955,0.52631,0.52432,0.52286,0.52118,0.51854,0.51435,0.50824,0.50013,0.49023,0.47899,0.46707,0.45522,0.44416,0.43452,0.4267,0.42082,0.41674,0.41405,0.41214,0.41028,0.40776,0.40397,0.39849,0.3912,0.38226,0.37214,0.36152,0.35124,0.34219,0.33518,0.33085,0.32957,0.3314,0.33611,0.3432,0.35198,0.36166,0.37149,0.38084,0.38931,0.39675,0.40333,0.40944,0.4157,0.4228,0.43146,0.44224,0.45552,0.47137,0.48958,0.50964,0.53081,0.55222,0.57296,0.59222,0.60936,0.62407,0.63632,0.64641,0.65495,0.66274,0.67068,0.67966,0.69042,0.7035,0.71912,0.73722,0.75739,0.77902,0.80132,0.82342,0.84454,0.86401,0.88138,0.89646,0.90932,0.92023,0.92958,0.93784,0.9454,0.9525,0.95918,0.9652,0.97008,0.9731,0.97343,0.97015,0.96245,0.94966,0.93137,0.90747,0.87818,0.84401,0.8057,0.76415,0.72024,0.67482,0.62851,0.58171,0.53452,0.48679,0.43811,0.38795,0.33575,0.28101,0.22342,0.16292,0.099731,0.034385,-0.032346,-0.099521,-0.16613,-0.23122,-0.29399,-0.3539,-0.41069,-0.46443,-0.51549,-0.56445,-0.61202,-0.65892,-0.70582,-0.75315,-0.80114,-0.84971,-0.89852,-0.94702,-0.99451,-1.0402,-1.0836,-1.124,-1.1613,-1.1954,-1.2267,-1.2557,-1.283,-1.3095,-1.3359,-1.3627,-1.3902,-1.4186,-1.4476,-1.4766,-1.5049,-1.5317,-1.5561,-1.5775,-1.5953,-1.6093,-1.6196,-1.6266,-1.6309,-1.6333,-1.6347,-1.636,-1.6376,-1.6402,-1.6438,-1.6483,-1.6533,-1.6581,-1.662,-1.6643,-1.6642,-1.6615,-1.6558,-1.6473,-1.6362,-1.623,-1.6085,-1.5932,-1.5777,-1.5624,-1.5476,-1.5329,-1.5183,-1.503,-1.4865,-1.4681,-1.4473,-1.4238,-1.3975,-1.3686,-1.3377,-1.3055,-1.273,-1.2411,-1.2107,-1.1826,-1.1572,-1.1347,-1.1148,-1.0971,-1.0807,-1.0649,-1.0487,-1.0313,-1.0121,-0.99062,-0.96691,-0.94118,-0.91391,-0.8858,-0.8576,-0.83007,-0.80382,-0.7793,-0.75672,-0.73601,-0.71695,-0.69911,-0.68206,-0.66536,-0.64872,-0.63204,-0.61549,-0.59945,-0.58454,-0.57151,-0.56116,-0.55423,-0.55126,-0.55256,-0.55808,-0.56744,-0.57991,-0.59452,-0.61011,-0.62548,-0.63952,-0.65131,-0.66019,-0.66589,-0.66847,-0.6683,-0.66602,-0.66244,-0.65836,-0.65452,-0.65148,-0.64951,-0.64863,-0.64855,-0.64878,-0.64868,-0.6476,-0.64494,-0.6403,-0.63352,-0.62473,-0.61432,-0.60292,-0.59129,-0.58023,-0.57048,-0.56257,-0.55679,-0.55312,-0.55124,-0.55053,-0.55023,-0.54946,-0.54739,-0.54332,-0.5368,-0.52768,-0.51611,-0.50253,-0.48762,-0.47219,-0.45708,-0.44304,-0.43065,-0.42023,-0.41184,-0.40524,-0.39999,-0.3955,-0.39112,-0.38627,-0.38054,-0.37372,-0.36587,-0.35729,-0.34852,-0.34019,-0.33297,-0.32746,-0.32405,-0.32291,-0.32387,-0.32648,-0.33002,-0.3336,-0.33622,-0.33696,-0.33502,-0.32988,-0.32133,-0.3095,-0.29489,-0.27824,-0.26047,-0.24258,-0.22552,-0.21003,-0.19664,-0.18556,-0.17667,-0.16958,-0.1637,-0.15831,-0.1527,-0.14627,-0.1386,-0.12953,-0.11919,-0.10795,-0.09638,-0.085144,-0.07492,-0.066276,-0.059585,-0.054969,-0.052262,-0.051031,-0.050634,-0.050304,-0.04926,-0.046818,-0.042502,-0.036117,-0.027795,-0.017988,-0.0074282,0.002957,0.012159,0.019208,0.023291,0.02385,0.020652,0.013811,0.0037669,-0.0087697,-0.022908,-0.037692,-0.052217,-0.065732,-0.077721,-0.087951,-0.096469,-0.10357,-0.10973,-0.11548,-0.12137,-0.12779,-0.13496,-0.14287,-0.15124,-0.15959,-0.1673,-0.17369,-0.17813,-0.18014,-0.17946,-0.17611,-0.17042,-0.16295,-0.15449,-0.14592,-0.1381,-0.13179,-0.12753,-0.12557,-0.12585,-0.128,-0.1314,-0.13525,-0.13869,-0.14096,-0.14142,-0.13974,-0.13587,-0.13011,-0.12305,-0.11548,-0.10833,-0.10251,-0.098845,-0.097919,-0.10005,-0.10524,-0.11321,-0.12341,-0.13517,-0.14772,-0.16038,-0.1726,-0.18405,-0.19464,-0.20455,-0.21414,-0.2239,-0.23434,-0.24592,-0.25891,-0.27334,-0.28899,-0.30538,-0.32178,-0.33734,-0.35118,-0.36248,-0.37059,-0.37514,-0.37604,-0.37357,-0.36827,-0.36092,-0.35243,-0.34371,-0.33557,-0.32862,-0.32317,-0.31922,-0.31648,-0.31438,-0.3122,-0.30915,-0.30451,-0.29774,-0.28854,-0.27692,-0.2632,-0.24799,-0.23208,-0.21636,-0.20172,-0.18892,-0.17851,-0.17079,-0.16574,-0.16307,-0.16229,-0.16275,-0.16376,-0.16468,-0.16504,-0.16458,-0.16328,-0.16138,-0.15932,-0.15767,-0.157,-0.15783,-0.16052,-0.16518,-0.17161,-0.17936,-0.18774,-0.19591,-0.20293,-0.20798,-0.21033,-0.20956,-0.2055,-0.19832,-0.18849,-0.1767,-0.16375,-0.1505,-0.1377,-0.12591,-0.11546,-0.10635,-0.09832,-0.090865,-0.08332,-0.074967,-0.065147,-0.053359,-0.039345,-0.023134,-0.0050476,0.014336,0.03425,0.053838,0.072257,0.088792,0.10294,0.11445,0.12337,0.13003,0.13495,0.13877,0.14217,0.14573,0.1499,0.15485,0.16053,0.16664,0.17267,0.17801,0.18203,0.18416,0.18403,0.18149,0.17667,0.16998,0.16202,0.15357,0.14542,0.13833,0.13286,0.12933,0.12775,0.12782,0.12895,0.13036,0.13112,0.13032,0.12719,0.12115,0.11194,0.099623,0.084585,0.067488,0.049187,0.030614,0.012661,-0.0039223,-0.018626,-0.031232,-0.041829,-0.050784,-0.058681,-0.066225,-0.074142,-0.083067,-0.093454,-0.10552,-0.1192,-0.13418,-0.14994,-0.16582,-0.18113,-0.19522,-0.20762,-0.21805,-0.22647,-0.23308,-0.23828,-0.24258,-0.24654,-0.25063,-0.25521,-0.26038,-0.26603,-0.27179,-0.27709,-0.28126,-0.28356,-0.28338,-0.28025,-0.27398,-0.26466,-0.25272,-0.23884,-0.2239,-0.20888,-0.19473,-0.18227,-0.17207,-0.16442,-0.15924,-0.15615,-0.15451,-0.15349,-0.15219,-0.14978,-0.14558,-0.13915,-0.13035,-0.11934,-0.10652,-0.092509,-0.078009,-0.063712,-0.050196,-0.03784,-0.026775,-0.016863,-0.0077265,0.0011988,0.010574,0.021053,0.033185,0.047322,0.063555,0.081689,0.10126,0.12157,0.14181,0.16113,0.17877,0.19413,0.2069,0.21708,0.22498,0.23116,0.23642,0.24163,0.24765,0.2552,0.26479,0.27661,0.29052,0.30611,0.32268,0.3394,0.35536,0.36974,0.38186,0.39129,0.39788,0.40175,0.40326,0.40293,0.40134,0.39906,0.39651,0.39394,0.39133,0.38846,0.3849,0.38007,0.37337,0.36429,0.35243,0.33768,0.32019,0.3004,0.27901,0.25689,0.23503,0.21436,0.19572,0.17971,0.16666,0.1566,0.14925,0.14409,0.14043,0.13755,0.13472,0.13139,0.12724,0.12218,0.11645,0.11048,0.10492,0.10047,0.097809,0.097501,0.099878,0.105,0.11265,0.12231,0.1333,0.1448,0.15597,0.16608,0.17459,0.18121,0.1859,0.18892,0.1907,0.19183,0.19291,0.19446,0.19684,0.20014,0.20418,0.20851,0.21244,0.21512,0.21563,0.21314,0.20696,0.19667,0.18216,0.16366,0.14173,0.11715,0.090896,0.063967,0.037311,0.011709,-0.012293,-0.034422,-0.054676,-0.073281,-0.090611,-0.1071,-0.12313,-0.13894,-0.15455,-0.16973,-0.184,-0.19666,-0.20686,-0.21371,-0.2164,-0.2143,-0.20704,-0.19459,-0.17726,-0.15567,-0.1307,-0.10341,-0.074885,-0.046156,-0.018083,0.0087133,0.033897,0.057411,0.079437,0.10032,0.12046,0.14025,0.15992,0.17953,0.19889,0.21757,0.23495,0.2503,0.26284,0.27189,0.27695,0.2778,0.27451,0.26751,0.25751,0.24543,0.23234,0.21931,0.2073,0.19705,0.18905,0.18348,0.18025,0.17903,0.17939,0.18086,0.18309,0.18594,0.18952,0.19431,0.20106,0.21085,0.22491,0.2446,0.27121,0.30589,0.34955,0.40272,0.46558,0.53791,0.61914,0.70838,0.80453,0.90636,1.0125,1.1218,1.2327,1.344,1.4542,1.5619,1.6652,1.762,1.8501,1.9265,1.9882,2.0316,2.0531,2.0491,2.0163,1.9515,1.8524,1.7173,1.5455,1.3374,1.0943,0.8187,0.51398,0.18438,-0.16517,-0.52922,-0.90194,-1.2773,-1.6493,-2.0119,-2.3594,-2.6861,-2.9869,-3.2571,-3.4923,-3.6887,-3.8434,-3.954,-4.0191,-4.0381,-4.0115,-3.9408,-3.8286,-3.6784,-3.4946,-3.2823,-3.0471,-2.7948,-2.5314,-2.2625,-1.9934,-1.7288,-1.4728,-1.2284,-0.99822,-0.78391,-0.5866,-0.40685,-0.24485,-0.10052,0.026436,0.13643,0.22999,0.30776,0.37053,0.41929,0.45524,0.47986,0.49488,0.50226,0.50408,0.5025,0.49959,0.49724,0.49701,0.50006,0.50707,0.51821,0.53321,0.5514,0.57182,0.59335,0.61488,0.63538,0.65405,0.67036,0.6841,0.69533,0.70435,0.71159,0.71753,0.72261,0.7271,0.73109,0.73446,0.73689,0.73792,0.73704,0.73382,0.72792,0.71929,0.70814,0.69497,0.68058,0.66596,0.65223,0.64048,0.63168,0.62656,0.62552,0.62858,0.63538,0.64522,0.65717,0.67015,0.68307,0.69496,0.70508,0.71298,0.71853,0.72192,0.72363,0.72426,0.72451,0.72501,0.72627,0.72852,0.73178,0.73577,0.74004,0.74396,0.7469,0.74828,0.74769,0.74496,0.74018,0.73374,0.72622,0.7184,0.71108,0.70504,0.7009,0.69903,0.69953,0.7022,0.70657,0.71196,0.71758,0.72263,0.72643,0.72848,0.72857,0.72677,0.72349,0.71934,0.71512,0.71169,0.70985,0.71026,0.71335,0.71925,0.72781,0.73862,0.75108,0.7645,0.77818,0.79155,0.80422,0.81605,0.82715,0.83788,0.84876,0.86041,0.87342,0.88825,0.90516,0.92415,0.94492,0.9669,0.98932,1.0113,1.0319,1.0504,1.0662,1.0791,1.089,1.0965,1.1021,1.1067,1.1114,1.1169,1.1243,1.1339,1.146,1.1605,1.1772,1.1953,1.214,1.2326,1.2503,1.2665,1.2809,1.2935,1.3043,1.3138,1.3227,1.3314,1.3405,1.3504,1.3613,1.3729,1.3849,1.3965,1.4071,1.4155,1.4212,1.4232,1.4212,1.415,1.4048,1.391,1.3743,1.3555,1.3355,1.3151,1.2946,1.2745,1.2547,1.2349,1.2146,1.193,1.1695,1.1432,1.1138,1.0808,1.0443,1.0046,0.96206,0.91748,0.87159,0.82512,0.77867,0.73263,0.6871,0.6419,0.59659,0.55054,0.50301,0.45326,0.40069,0.34492,0.28585,0.22371,0.15905,0.092676,0.025568,-0.041225,-0.1067,-0.17003,-0.23059,-0.2881,-0.34253,-0.39416,-0.44347,-0.49103,-0.53743,-0.58317,-0.62855,-0.67364,-0.71826,-0.76197,-0.80417,-0.84416,-0.88126,-0.9149,-0.94471,-0.9706,-0.99277,-1.0117,-1.028,-1.0426,-1.0563,-1.0699,-1.0839,-1.0987,-1.1144,-1.1306,-1.1468,-1.1623,-1.1763,-1.188,-1.1969,-1.2025,-1.2047,-1.2038,-1.2001,-1.1944,-1.1875,-1.1802,-1.1733,-1.1671,-1.1619,-1.1577,-1.154,-1.1502,-1.1455,-1.1391,-1.1302,-1.1183,-1.1032,-1.0848,-1.0636,-1.0403,-1.0157,-0.99096,-0.96703,-0.9448,-0.92496,-0.90787,-0.89359,-0.88188,-0.87224,-0.86402,-0.85649,-0.84899,-0.841,-0.8322,-0.82251,-0.8121,-0.80134,-0.79071,-0.78072,-0.77184,-0.76436,-0.75838,-0.75373,-0.74999,-0.74655,-0.74267,-0.73756,-0.73053,-0.72107,-0.70892,-0.69414,-0.6771,-0.65849,-0.6392,-0.62023,-0.6026,-0.5872,-0.57469,-0.56546,-0.55952,-0.55661,-0.55612,-0.55731,-0.55931,-0.5613,-0.56259,-0.56271,-0.56148,-0.55901,-0.55568,-0.55205,-0.54879,-0.54659,-0.54599,-0.54737,-0.55083,-0.55617,-0.56295,-0.57052,-0.57808,-0.58485,-0.59013,-0.59342,-0.5945,-0.59343,-0.59055,-0.58646,-0.5819,-0.57764,-0.5744,-0.57271,-0.57285,-0.57478,-0.57817,-0.58243,-0.58678,-0.59036,-0.59234,-0.59207,-0.58912,-0.58337,-0.575,-0.56453,-0.55266,-0.54026,-0.52823,-0.51738,-0.50832,-0.50142,-0.49676,-0.49411,-0.49302,-0.49284,-0.4929,-0.49251,-0.49116,-0.48852,-0.48452,-0.47934,-0.47342,-0.46732,-0.46169,-0.45715,-0.45418,-0.45303,-0.45372,-0.45594,-0.45915,-0.46259,-0.46539,-0.4667,-0.46574,-0.46197,-0.45512,-0.44522,-0.43261,-0.41791,-0.40187,-0.38537,-0.3692,-0.35405,-0.34034,-0.32823,-0.31758,-0.30799,-0.29886,-0.28948,-0.27916,-0.26731,-0.25355,-0.23778,-0.22016,-0.20113,-0.18133,-0.16154,-0.14254,-0.12504,-0.10954,-0.09633,-0.085374,-0.076381,-0.068829,-0.06204,-0.055284,-0.047885,-0.039315,-0.029263,-0.017681,-0.0047887,0.0089681,0.022985,0.036592,0.049158,0.06019,0.069413,0.07682,0.082678,0.087501,0.091984,0.096907,0.10302,0.11094,0.12107,0.13348,0.14798,0.16402,0.18084,0.19752,0.21309,0.22666,0.23753,0.24526,0.24973,0.25117,0.25006,0.24716,0.24331,0.23938,0.23614,0.23416,0.23377,0.235,0.23759,0.2411,0.24492,0.24843,0.25104,0.25234,0.25215,0.25051,0.24773,0.24431,0.24088,0.23811,0.23657,0.23668,0.23862,0.24229,0.24733,0.25315,0.25898,0.26403,0.26754,0.26889,0.26774,0.26399,0.25787,0.24989,0.24074,0.23125,0.22223,0.21438,0.20817,0.20382,0.20122,0.19997,0.19944,0.19886,0.19742,0.19437,0.18918,0.18155,0.17148,0.1593,0.1456,0.13113,0.11677,0.10334,0.091558,0.081882,0.074495,0.069267,0.065777,0.063374,0.061267,0.058642,0.054772,0.04912,0.041412,0.031677,0.020245,0.0076942,-0.0052223,-0.017679,-0.028888,-0.038206,-0.045215,-0.049772,-0.052018,-0.052354,-0.051374,-0.049765,-0.048206,-0.047263,-0.047297,-0.048406,-0.050404,-0.052846,-0.05508,-0.056334,-0.055825,-0.052861,-0.04694,-0.037809,-0.025505,-0.010347,0.0071089,0.026146,0.04598,0.065863,0.085183,0.10354,0.12079,0.13705,0.15267,0.16815,0.18409,0.20103,0.21938,0.23935,0.26087,0.28357,0.30687,0.32997,0.35199,0.37208,0.38952,0.40383,0.41481,0.4226,0.42763,0.43061,0.43237,0.43383,0.43578,0.43889,0.44353,0.44974,0.45728,0.4656,0.47396,0.48152,0.48746,0.4911,0.49197,0.48992,0.48507,0.47787,0.46896,0.45913,0.44919,0.43984,0.4316,0.42474,0.41924,0.4148,0.4109,0.40691,0.40216,0.39606,0.38822,0.37851,0.3671,0.35447,0.34135,0.32864,0.3173,0.30824,0.30216,0.29953,0.30046,0.30471,0.31171,0.32063,0.33047,0.34016,0.34871,0.35529,0.35935,0.36058,0.35903,0.35496,0.34884,0.34124,0.3327,0.32367,0.31445,0.30507,0.29539,0.28506,0.27363,0.2606,0.24556,0.22826,0.20867,0.18707,0.16401,0.14028,0.11686,0.094802,0.075132,0.058719,0.046184,0.037832,0.033615,0.033148,0.035752,0.040554,0.046593,0.052946,0.058834,0.063723,0.067376,0.069869,0.071561,0.073031,0.074976,0.078099,0.082998,0.090071,0.09945,0.11098,0.12422,0.13852,0.15311,0.16717,0.18001,0.19109,0.20016,0.20727,0.21277,0.21728,0.22158,0.22655,0.23302,0.24166,0.25294,0.26702,0.28376,0.30278,0.32344,0.34502,0.36677,0.38804,0.40834,0.42744,0.44534,0.46231,0.47878,0.49528,0.51232,0.53031,0.54943,0.56961,0.59046,0.61131,0.63127,0.6493,0.66435,0.67548,0.68197,0.68339,0.67968,0.67113,0.65837,0.64227,0.62382,0.60405,0.58385,0.56393,0.5447,0.52627,0.50846,0.49083,0.4728,0.45376,0.43312,0.41047,0.38563,0.35868,0.32998,0.3001,0.26978,0.23983,0.211,0.18395,0.1591,0.13666,0.11657,0.098542,0.08215,0.066881,0.052239,0.037843,0.02349,0.00921,-0.0047306,-0.017848,-0.029504,-0.038998,-0.04567,-0.049002,-0.048714,-0.044827,-0.037683,-0.027929,-0.01646,-0.0043235,0.0073947,0.017692,0.025758,0.031062,0.033406,0.032931,0.030081,0.025528,0.020074,0.014533,0.0096209,0.0058635,0.0035352,0.0026407,0.0029332,0.0039755,0.0052331,0.0061812,0.0064103,0.0057195,0.0041833,0.0021801,0.00037735,-0.00031771,0.0011618,0.0059383,0.015077,0.029481,0.049815,0.076449,0.10945,0.14859,0.19347,0.24353,0.29819,0.35698,0.41956,0.48581,0.55583,0.62991,0.70848,0.79198,0.88077,0.97497,1.0744,1.1785,1.2863,1.3961,1.5063,1.6144,1.718,1.8145,1.9012,1.9754,2.0347,2.0768,2.0998,2.1017,2.0812,2.0367,1.9669,1.8709,1.7478,1.5967,1.4175,1.2101,0.97513,0.71401,0.42881,0.12252,-0.201,-0.53701,-0.88009,-1.2242,-1.5631,-1.8903,-2.1996,-2.4852,-2.7421,-2.9659,-3.1536,-3.3028,-3.4123,-3.482,-3.5125,-3.5052,-3.4619,-3.3852,-3.2779,-3.1429,-2.9835,-2.8033,-2.6058,-2.3948,-2.1744,-1.9485,-1.7213,-1.4968,-1.2789,-1.0711,-0.87659,-0.69783,-0.53665,-0.3941,-0.27047,-0.16528,-0.077411,-0.0052263,0.05329,0.10034,0.13816,0.16883,0.19419,0.21578,0.23476,0.25197,0.26797,0.28312,0.29768,0.31189,0.32602,0.34042,0.35552,0.3718,0.3897,0.40955,0.43154,0.45556,0.48123,0.50785,0.53446,0.55988,0.58284,0.60205,0.61643,0.62511,0.62762,0.62391,0.61439,0.59986,0.58147,0.5606,0.53874,0.5173,0.49758,0.48056,0.46693,0.45702,0.45087,0.44825,0.44878,0.45201,0.45755,0.46509,0.47452,0.48588,0.49935,0.51521,0.53374,0.55511,0.57935,0.60623,0.63525,0.66565,0.69643,0.72648,0.75461,0.77975,0.80101,0.81777,0.8298,0.83721,0.84048,0.84039,0.83792,0.83413,0.83002,0.82648,0.82411,0.82326,0.82394,0.82592,0.82873,0.8318,0.83456,0.83652,0.83737,0.83704,0.83572,0.83382,0.83193,0.83074,0.8309,0.83296,0.83727,0.84389,0.85257,0.8628,0.87381,0.88469,0.89452,0.90242,0.90773,0.91005,0.9093,0.90574,0.89996,0.89274,0.88501,0.87774,0.87178,0.86781,0.86625,0.86724,0.87064,0.87607,0.88302,0.89091,0.89922,0.90755,0.91572,0.92378,0.93202,0.94093,0.95108,0.96308,0.97744,0.99451,1.0143,1.0367,1.0612,1.0868,1.1127,1.1379,1.1612,1.1818,1.1991,1.2126,1.2223,1.2285,1.2315,1.2322,1.2311,1.2289,1.2261,1.223,1.2197,1.216,1.2115,1.2058,1.1984,1.1889,1.1771,1.1629,1.1466,1.1286,1.1098,1.0908,1.0727,1.0561,1.0416,1.0296,1.0201,1.0127,1.0068,1.0016,0.9959,0.98883,0.97943,0.96693,0.95089,0.93114,0.90781,0.88131,0.85223,0.82123,0.78896,0.75592,0.72243,0.68853,0.65404,0.61852,0.5814,0.54205,0.49987,0.4544,0.4054,0.35293,0.2973,0.23911,0.17916,0.11837,0.057662,-0.0021415,-0.060393,-0.11671,-0.17097,-0.22337,-0.2743,-0.3243,-0.37399,-0.4239,-0.47441,-0.5257,-0.57765,-0.62986,-0.68171,-0.73241,-0.78107,-0.82687,-0.86909,-0.90728,-0.94122,-0.97104,-0.99712,-1.0201,-1.0407,-1.0597,-1.0779,-1.0958,-1.1138,-1.1318,-1.1497,-1.167,-1.1832,-1.1975,-1.2095,-1.2185,-1.2245,-1.2274,-1.2275,-1.2253,-1.2216,-1.2169,-1.212,-1.2074,-1.2035,-1.2003,-1.1976,-1.1949,-1.1916,-1.1871,-1.1806,-1.1716,-1.1599,-1.1455,-1.1288,-1.1103,-1.0909,-1.0717,-1.0537,-1.0377,-1.0246,-1.0146,-1.0079,-1.0042,-1.003,-1.0034,-1.0045,-1.0053,-1.005,-1.003,-0.99872,-0.9922,-0.98354,-0.97316,-0.9616,-0.94946,-0.9373,-0.92553,-0.9144,-0.90388,-0.89376,-0.88364,-0.873,-0.86134,-0.84823,-0.83343,-0.81695,-0.79906,-0.78033,-0.76152,-0.74355,-0.72737,-0.71386,-0.7037,-0.69732,-0.69478,-0.69586,-0.70001,-0.70644,-0.71425,-0.72251,-0.73041,-0.73733,-0.74292,-0.74714,-0.75023,-0.75266,-0.75505,-0.75809,-0.76236,-0.76831,-0.77611,-0.78567,-0.7966,-0.80826,-0.81984,-0.83044,-0.83922,-0.8455,-0.8488,-0.849,-0.84624,-0.841,-0.83396,-0.82596,-0.81785,-0.81043,-0.80427,-0.79972,-0.79683,-0.79536,-0.79482,-0.79456,-0.79385,-0.792,-0.78845,-0.78283,-0.77507,-0.76531,-0.75395,-0.74157,-0.72878,-0.71619,-0.7043,-0.69338,-0.68347,-0.67434,-0.66552,-0.65638,-0.64618,-0.6342,-0.61986,-0.60275,-0.58276,-0.56006,-0.53512,-0.50863,-0.48144,-0.45444,-0.42845,-0.40411,-0.38181,-0.36165,-0.34342,-0.32668,-0.31076,-0.29493,-0.27848,-0.26083,-0.24162,-0.22076,-0.19845,-0.17515,-0.15155,-0.12844,-0.10661,-0.086758,-0.069381,-0.054713,-0.04269,-0.032963,-0.024947,-0.017905,-0.011045,-0.0036271,0.0049322,0.014983,0.026599,0.03957,0.053434,0.067543,0.081161,0.093571,0.10417,0.11258,0.11865,0.12255,0.12467,0.12563,0.12614,0.12692,0.1286,0.1316,0.13613,0.14209,0.14914,0.15671,0.16414,0.17071,0.17582,0.17901,0.18013,0.17929,0.17692,0.1737,0.17049,0.16822,0.16781,0.16999,0.17529,0.18392,0.19576,0.21039,0.22713,0.24515,0.26355,0.28151,0.29833,0.31357,0.327,0.3387,0.34895,0.35817,0.36685,0.37543,0.38424,0.39339,0.40277,0.41203,0.42064,0.42796,0.43334,0.43619,0.43615,0.43306,0.42711,0.41875,0.40871,0.39789,0.38727,0.37778,0.37021,0.36509,0.36263,0.36268,0.3648,0.36826,0.37216,0.37555,0.37756,0.37747,0.37481,0.36944,0.36153,0.35153,0.34012,0.32808,0.3162,0.30519,0.29553,0.28749,0.28101,0.27581,0.27138,0.2671,0.26229,0.2564,0.24902,0.23997,0.22936,0.21751,0.20497,0.19238,0.18042,0.16964,0.16045,0.15297,0.14704,0.14222,0.13784,0.13304,0.12696,0.11874,0.10772,0.093494,0.075944,0.055285,0.032019,0.0068759,-0.019286,-0.045585,-0.071226,-0.095601,-0.11835,-0.13938,-0.15886,-0.1772,-0.19492,-0.21255,-0.23058,-0.24931,-0.26879,-0.2888,-0.30884,-0.32815,-0.34585,-0.36099,-0.37268,-0.38023,-0.3832,-0.38149,-0.37535,-0.36532,-0.35225,-0.33709,-0.32087,-0.30455,-0.2889,-0.27444,-0.26141,-0.24975,-0.23915,-0.22913,-0.21911,-0.20852,-0.19693,-0.18406,-0.1699,-0.15465,-0.13873,-0.1227,-0.10714,-0.092601,-0.079477,-0.067931,-0.057858,-0.048882,-0.040392,-0.031619,-0.021736,-0.0099776,0.0042545,0.021292,0.041138,0.063448,0.08755,0.11252,0.13726,0.16065,0.18164,0.19941,0.2134,0.22343,0.22965,0.23257,0.23291,0.23157,0.22948,0.22749,0.22629,0.22631,0.22772,0.23041,0.23409,0.23831,0.24261,0.24659,0.25002,0.25289,0.25544,0.25817,0.26174,0.26695,0.27458,0.28532,0.29965,0.31778,0.33956,0.36457,0.39205,0.42109,0.45065,0.47968,0.5073,0.53279,0.55573,0.57596,0.59362,0.60905,0.6227,0.63508,0.64663,0.6576,0.66807,0.67784,0.68648,0.69337,0.69781,0.69904,0.69644,0.68953,0.67813,0.66232,0.64249,0.61927,0.59349,0.56602,0.53775,0.50938,0.48143,0.45411,0.42735,0.4008,0.3739,0.34599,0.31637,0.28446,0.24987,0.21247,0.17239,0.13009,0.086244,0.041681,-0.0026961,-0.046032,-0.087613,-0.12693,-0.16374,-0.19804,-0.23008,-0.26023,-0.28894,-0.31664,-0.3436,-0.36989,-0.39533,-0.41945,-0.44154,-0.46075,-0.47611,-0.4867,-0.49178,-0.49083,-0.48367,-0.47049,-0.45183,-0.42855,-0.40171,-0.37251,-0.34211,-0.31158,-0.28174,-0.25317,-0.22614,-0.20067,-0.17655,-0.15345,-0.13101,-0.10894,-0.087089,-0.065503,-0.044439,-0.024343,-0.0057879,0.010609,0.02429,0.034859,0.042166,0.046359,0.047913,0.047606,0.046452,0.045623,0.046329,0.049713,0.056746,0.068141,0.08432,0.1054,0.13123,0.16144,0.19558,0.23318,0.27386,0.31742,0.3639,0.41354,0.46681,0.5243,0.58664,0.65439,0.72789,0.80725,0.89219,0.98207,1.0759,1.1722,1.2695,1.3659,1.4595,1.5486,1.6313,1.706,1.7713,1.8257,1.8679,1.8966,1.9103,1.9076,1.8866,1.8456,1.7826,1.6959,1.5835,1.4442,1.277,1.0817,0.85856,0.60914,0.33566,0.041332,-0.26986,-0.59323,-0.9236,-1.2555,-1.5833,-1.9017,-2.2055,-2.4901,-2.7513,-2.9857,-3.1903,-3.363,-3.5021,-3.6064,-3.6754,-3.7089,-3.7072,-3.6712,-3.6024,-3.5026,-3.3743,-3.2207,-3.0454,-2.8525,-2.6463,-2.4316,-2.2129,-1.9947,-1.781,-1.5753,-1.3806,-1.1988,-1.0314,-0.87896,-0.74154,-0.61861,-0.50931,-0.41253,-0.3271,-0.25189,-0.18585,-0.12809,-0.077847,-0.034453,0.0027201,0.034327,0.061111,0.083939,0.10381,0.12183,0.13915,0.15692,0.17613,0.19755,0.22166,0.24857,0.278,0.30933,0.34166,0.37388,0.40486,0.4335,0.45892,0.48055,0.49816,0.51189,0.52227,0.53008,0.53631,0.54201,0.54818,0.55567,0.56508,0.57672,0.59059,0.60647,0.62391,0.64238,0.66136,0.68043,0.69934,0.71808,0.73682,0.75594,0.77591,0.79722,0.82028,0.84529,0.87222,0.90071,0.93012,0.95951,0.98781,1.0138,1.0364,1.0547,1.068,1.0758,1.0784,1.0761,1.0695,1.0598,1.0477,1.0345,1.021,1.0077,0.99508,0.98319,0.97178,0.96044,0.9486,0.93568,0.9212,0.90481,0.88643,0.86619,0.84446,0.8218,0.79885,0.77627,0.75462,0.73428,0.71538,0.69782,0.68124,0.66508,0.64871,0.63146,0.61282,0.59245,0.57031,0.54667,0.52214,0.49758,0.47402,0.45259,0.43435,0.4202,0.41076,0.4063,0.40673,0.41159,0.42013,0.43142,0.44439,0.45803,0.47146,0.48399,0.49524,0.50506,0.51356,0.52104,0.5279,0.53456,0.54134,0.54844,0.55585,0.5634,0.57075,0.57747,0.58312,0.58735,0.58996,0.591,0.5908,0.58993,0.58921,0.58958,0.59205,0.59754,0.60679,0.62027,0.63812,0.66008,0.6856,0.71382,0.7437,0.77413,0.80407,0.83261,0.85913,0.88328,0.90501,0.92457,0.94239,0.95899,0.97492,0.99059,1.0062,1.0218,1.0371,1.0514,1.0642,1.0745,1.0816,1.0849,1.084,1.0785,1.0688,1.0553,1.0386,1.0197,0.99939,0.97859,0.95796,0.93793,0.91861,0.89982,0.88109,0.86174,0.84098,0.81804,0.79226,0.76318,0.73063,0.69471,0.65581,0.61454,0.57162,0.5278,0.48375,0.43993,0.39656,0.35358,0.31063,0.26711,0.2223,0.17541,0.12572,0.072731,0.016183,-0.043835,-0.1069,-0.17227,-0.23898,-0.30594,-0.37205,-0.43628,-0.49787,-0.55628,-0.61132,-0.66311,-0.71202,-0.75858,-0.80344,-0.84715,-0.89018,-0.93274,-0.9748,-1.0161,-1.056,-1.094,-1.1294,-1.1614,-1.1897,-1.2138,-1.2339,-1.2501,-1.2631,-1.2736,-1.2823,-1.29,-1.2975,-1.3051,-1.3131,-1.3216,-1.3301,-1.3383,-1.3455,-1.3512,-1.3549,-1.3563,-1.3554,-1.3524,-1.3477,-1.3421,-1.3364,-1.3312,-1.3274,-1.3254,-1.3256,-1.3277,-1.3314,-1.3361,-1.3408,-1.3447,-1.3468,-1.3463,-1.3427,-1.3356,-1.325,-1.3114,-1.2954,-1.2776,-1.259,-1.2403,-1.2221,-1.205,-1.189,-1.1741,-1.1601,-1.1463,-1.1325,-1.118,-1.1026,-1.0861,-1.0687,-1.0507,-1.0327,-1.0155,-0.9997,-0.98606,-0.97504,-0.96688,-0.96149,-0.95849,-0.9572,-0.95673,-0.9561,-0.95434,-0.95064,-0.94442,-0.93541,-0.92372,-0.90979,-0.89433,-0.87825,-0.8625,-0.84798,-0.83542,-0.82526,-0.81765,-0.81239,-0.80903,-0.80691,-0.80526,-0.80334,-0.80055,-0.79647,-0.79098,-0.78424,-0.77666,-0.76884,-0.76147,-0.75522,-0.75067,-0.74812,-0.74764,-0.74895,-0.75147,-0.75439,-0.75675,-0.75754,-0.75582,-0.75085,-0.74218,-0.72969,-0.71357,-0.69435,-0.67278,-0.64976,-0.6262,-0.60291,-0.58055,-0.5595,-0.53989,-0.52158,-0.50422,-0.48734,-0.47044,-0.45309,-0.43502,-0.41619,-0.39679,-0.37725,-0.35819,-0.34034,-0.32441,-0.31102,-0.30059,-0.29327,-0.28891,-0.28707,-0.28704,-0.28796,-0.2889,-0.28901,-0.28758,-0.28417,-0.27866,-0.27125,-0.26242,-0.2529,-0.24352,-0.23514,-0.22852,-0.22419,-0.22241,-0.22314,-0.22604,-0.23048,-0.23571,-0.24089,-0.24525,-0.2482,-0.24937,-0.24873,-0.24654,-0.24335,-0.2399,-0.23703,-0.23557,-0.23622,-0.23944,-0.24543,-0.25404,-0.26487,-0.27725,-0.29039,-0.30345,-0.31565,-0.32641,-0.33535,-0.34238,-0.34767,-0.35158,-0.35464,-0.3574,-0.36031,-0.36371,-0.36768,-0.37201,-0.37627,-0.37978,-0.38173,-0.38127,-0.37765,-0.37027,-0.35885,-0.34344,-0.32443,-0.30258,-0.27888,-0.25451,-0.2307,-0.20859,-0.18915,-0.17307,-0.16072,-0.15216,-0.14714,-0.14519,-0.14575,-0.1482,-0.15201,-0.15682,-0.16247,-0.16902,-0.17672,-0.18596,-0.19716,-0.21066,-0.22666,-0.24511,-0.26567,-0.2877,-0.31031,-0.33242,-0.35289,-0.37058,-0.38452,-0.39401,-0.39868,-0.3985,-0.39384,-0.38536,-0.37392,-0.36053,-0.34616,-0.33168,-0.31777,-0.30482,-0.29296,-0.28209,-0.2719,-0.26197,-0.25192,-0.24141,-0.23032,-0.21872,-0.20693,-0.19549,-0.18511,-0.17655,-0.17052,-0.16763,-0.16823,-0.17241,-0.17993,-0.19027,-0.20265,-0.21617,-0.22987,-0.24287,-0.25448,-0.26427,-0.27212,-0.27821,-0.28301,-0.28718,-0.29148,-0.29664,-0.30327,-0.31177,-0.32228,-0.33464,-0.34845,-0.3631,-0.3779,-0.39217,-0.40531,-0.41696,-0.42699,-0.43556,-0.44308,-0.45018,-0.45757,-0.46599,-0.47604,-0.48813,-0.50235,-0.5185,-0.53604,-0.55417,-0.57192,-0.58825,-0.60219,-0.61292,-0.61993
