0,0,0,0,0.001,0.005,0.011,0.023,0.043,0.074,0.118,0.18,0.262,0.367,0.495,0.649,0.827,1.028,1.251,1.491,1.745,2.008,2.275,2.542,2.803,3.055,3.293,3.514,3.717,3.899,4.059,4.196,4.311,4.403,4.473,4.521,4.55,4.559,4.55,4.526,4.489,4.44,4.383,4.321,4.256,4.192,4.132,4.077,4.03,3.992,3.965,3.948,3.94,3.942,3.951,3.966,3.985,4.008,4.032,4.057,4.082,4.106,4.129,4.151,4.172,4.191,4.209,4.225,4.239,4.249,4.255,4.257,4.254,4.246,4.233,4.215,4.192,4.167,4.139,4.111,4.083,4.057,4.034,4.013,3.996,3.982,3.97,3.961,3.953,3.947,3.941,3.935,3.929,3.924,3.92,3.918,3.918,3.921,3.928,3.938,3.953,3.97,3.99,4.012,4.034,4.056,4.077,4.096,4.112,4.125,4.136,4.145,4.151,4.157,4.162,4.166,4.171,4.176,4.181,4.185,4.187,4.188,4.186,4.181,4.173,4.161,4.147,4.13,4.112,4.094,4.076,4.06,4.046,4.035,4.025,4.018,4.013,4.009,4.005,4,3.995,3.988,3.98,3.971,3.962,3.953,3.946,3.941,3.938,3.939,3.944,3.952,3.964,3.978,3.993,4.01,4.027,4.044,4.06,4.076,4.091,4.106,4.121,4.138,4.156,4.176,4.198,4.221,4.246,4.272,4.297,4.32,4.341,4.359,4.373,4.382,4.387,4.389,4.387,4.382,4.375,4.367,4.358,4.349,4.34,4.33,4.319,4.307,4.293,4.278,4.26,4.242,4.222,4.203,4.185,4.17,4.159,4.155,4.158,4.169,4.19,4.221,4.262,4.312,4.372,4.441,4.517,4.602,4.693,4.791,4.896,5.008,5.125,5.249,5.377,5.509,5.642,5.775,5.904,6.026,6.137,6.232,6.308,6.36,6.383,6.376,6.333,6.254,6.137,5.981,5.787,5.555,5.287,4.985,4.654,4.297,3.919,3.525,3.121,2.714,2.311,1.918,1.544,1.194,0.877,0.599,0.364,0.177,0.041,-0.041,-0.071,-0.049,0.021,0.137,0.294,0.486,0.707,0.952,1.214,1.488,1.768,2.049,2.327,2.598,2.858,3.105,3.337,3.55,3.743,3.915,4.065,4.193,4.297,4.381,4.443,4.487,4.515,4.529,4.532,4.527,4.518,4.507,4.496,4.488,4.483,4.483,4.487,4.495,4.507,4.522,4.54,4.559,4.579,4.6,4.622,4.645,4.668,4.693,4.717,4.742,4.768,4.792,4.815,4.835,4.852,4.864,4.872,4.874,4.871,4.863,4.85,4.835,4.817,4.799,4.781,4.765,4.751,4.739,4.731,4.725,4.722,4.721,4.721,4.721,4.723,4.725,4.727,4.731,4.737,4.744,4.755,4.769,4.786,4.806,4.83,4.855,4.882,4.909,4.934,4.958,4.978,4.995,5.008,5.017,5.024,5.028,5.03,5.032,5.033,5.036,5.039,5.044,5.049,5.054,5.06,5.065,5.068,5.071,5.072,5.072,5.072,5.072,5.072,5.075,5.08,5.089,5.101,5.116,5.134,5.154,5.176,5.198,5.219,5.239,5.256,5.271,5.283,5.293,5.3,5.306,5.311,5.316,5.322,5.328,5.334,5.341,5.348,5.354,5.36,5.363,5.365,5.366,5.364,5.362,5.36,5.359,5.36,5.363,5.37,5.381,5.396,5.415,5.437,5.462,5.488,5.514,5.54,5.564,5.586,5.605,5.621,5.635,5.646,5.656,5.666,5.674,5.682,5.689,5.696,5.702,5.706,5.707,5.706,5.701,5.692,5.68,5.665,5.646,5.626,5.604,5.582,5.561,5.54,5.521,5.503,5.485,5.467,5.449,5.428,5.405,5.379,5.348,5.314,5.276,5.235,5.19,5.143,5.095,5.045,4.995,4.944,4.893,4.841,4.788,4.732,4.674,4.614,4.55,4.483,4.414,4.343,4.271,4.199,4.129,4.061,3.997,3.936,3.88,3.827,3.778,3.733,3.689,3.648,3.607,3.568,3.529,3.491,3.454,3.418,3.385,3.355,3.328,3.304,3.284,3.267,3.253,3.242,3.231,3.222,3.211,3.2,3.188,3.175,3.161,3.146,3.132,3.119,3.108,3.1,3.094,3.092,3.093,3.096,3.1,3.106,3.112,3.117,3.121,3.124,3.126,3.127,3.128,3.13,3.133,3.139,3.146,3.157,3.17,3.185,3.201,3.218,3.234,3.25,3.263,3.273,3.282,3.287,3.291,3.294,3.297,3.3,3.305,3.312,3.322,3.334,3.349,3.366,3.385,3.404,3.424,3.443,3.461,3.479,3.496,3.512,3.529,3.547,3.566,3.587,3.61,3.635,3.661,3.689,3.716,3.742,3.766,3.787,3.805,3.82,3.83,3.838,3.843,3.846,3.849,3.851,3.855,3.859,3.865,3.872,3.881,3.889,3.897,3.905,3.911,3.915,3.917,3.918,3.918,3.918,3.918,3.919,3.922,3.928,3.936,3.947,3.96,3.974,3.988,4.002,4.015,4.026,4.034,4.04,4.043,4.044,4.044,4.043,4.043,4.043,4.045,4.049,4.054,4.061,4.069,4.077,4.085,4.092,4.098,4.103,4.107,4.11,4.112,4.116,4.12,4.126,4.134,4.144,4.156,4.169,4.184,4.198,4.211,4.222,4.231,4.236,4.238,4.237,4.233,4.227,4.22,4.212,4.205,4.198,4.193,4.189,4.186,4.184,4.181,4.179,4.175,4.17,4.164,4.156,4.149,4.141,4.134,4.13,4.128,4.13,4.137,4.147,4.161,4.179,4.199,4.221,4.243,4.265,4.286,4.306,4.323,4.339,4.354,4.368,4.383,4.398,4.414,4.431,4.451,4.471,4.492,4.513,4.533,4.552,4.568,4.582,4.593,4.601,4.606,4.61,4.612,4.614,4.616,4.618,4.622,4.626,4.63,4.635,4.639,4.642,4.643,4.642,4.639,4.634,4.627,4.618,4.61,4.602,4.595,4.591,4.589,4.589,4.591,4.595,4.6,4.605,4.609,4.611,4.611,4.609,4.603,4.596,4.587,4.577,4.567,4.559,4.552,4.548,4.547,4.549,4.553,4.559,4.567,4.574,4.582,4.589,4.595,4.6,4.604,4.608,4.612,4.616,4.621,4.627,4.635,4.643,4.65,4.658,4.663,4.666,4.666,4.662,4.655,4.643,4.629,4.612,4.593,4.574,4.555,4.537,4.522,4.509,4.498,4.49,4.483,4.477,4.471,4.465,4.458,4.45,4.44,4.43,4.419,4.409,4.4,4.392,4.387,4.385,4.386,4.389,4.394,4.401,4.408,4.415,4.422,4.428,4.432,4.436,4.438,4.439,4.441,4.442,4.445,4.448,4.452,4.457,4.463,4.467,4.471,4.473,4.472,4.468,4.462,4.453,4.442,4.43,4.418,4.407,4.398,4.392,4.39,4.392,4.399,4.408,4.421,4.436,4.452,4.469,4.485,4.5,4.514,4.527,4.539,4.551,4.564,4.577,4.592,4.608,4.626,4.645,4.664,4.683,4.701,4.717,4.73,4.741,4.749,4.753,4.756,4.757,4.758,4.759,4.761,4.764,4.77,4.777,4.787,4.797,4.808,4.819,4.83,4.839,4.846,4.852,4.857,4.861,4.865,4.87,4.875,4.882,4.891,4.902,4.913,4.926,4.938,4.949,4.958,4.963,4.965,4.964,4.958,4.949,4.937,4.924,4.91,4.896,4.882,4.87,4.86,4.852,4.845,4.839,4.834,4.828,4.821,4.814,4.805,4.795,4.784,4.773,4.763,4.755,4.748,4.743,4.741,4.741,4.743,4.746,4.748,4.75,4.75,4.748,4.744,4.737,4.727,4.716,4.704,4.692,4.68,4.671,4.663,4.657,4.653,4.652,4.651,4.651,4.651,4.65,4.648,4.644,4.639,4.633,4.626,4.62,4.615,4.612,4.61,4.612,4.616,4.622,4.63,4.639,4.648,4.657,4.664,4.67,4.675,4.678,4.681,4.683,4.686,4.69,4.697,4.706,4.718,4.733,4.751,4.769,4.789,4.809,4.828,4.845,4.86,4.873,4.884,4.894,4.902,4.911,4.919,4.929,4.939,4.951,4.963,4.976,4.988,4.999,5.008,5.015,5.018,5.018,5.015,5.009,5.002,4.993,4.984,4.976,4.97,4.965,4.963,4.962,4.963,4.964,4.964,4.964,4.962,4.959,4.953,4.945,4.935,4.925,4.915,4.906,4.9,4.896,4.895,4.898,4.904,4.912,4.922,4.934,4.946,4.958,4.969,4.98,4.99,4.999,5.009,5.019,5.03,5.043,5.056,5.071,5.087,5.102,5.116,5.128,5.136,5.141,5.141,5.135,5.125,5.111,5.092,5.071,5.048,5.023,4.999,4.974,4.951,4.927,4.904,4.88,4.856,4.83,4.803,4.773,4.742,4.71,4.677,4.644,4.613,4.584,4.559,4.538,4.521,4.508,4.5,4.496,4.495,4.497,4.5,4.504,4.509,4.514,4.519,4.526,4.533,4.543,4.555,4.569,4.587,4.607,4.629,4.653,4.677,4.702,4.724,4.745,4.763,4.777,4.788,4.797,4.803,4.807,4.81,4.814,4.817,4.822,4.828,4.834,4.842,4.848,4.854,4.859,4.861,4.861,4.859,4.854,4.848,4.842,4.835,4.83,4.828,4.828,4.833,4.841,4.855,4.874,4.897,4.926,4.959,4.998,5.042,5.093,5.151,5.216,5.291,5.375,5.47,5.575,5.69,5.814,5.947,6.085,6.227,6.369,6.508,6.642,6.766,6.877,6.972,7.048,7.102,7.132,7.134,7.106,7.047,6.954,6.827,6.664,6.463,6.227,5.955,5.649,5.313,4.951,4.567,4.168,3.762,3.355,2.955,2.57,2.208,1.875,1.578,1.321,1.108,0.941,0.822,0.75,0.725,0.746,0.808,0.91,1.047,1.216,1.413,1.633,1.871,2.122,2.383,2.646,2.909,3.166,3.412,3.644,3.859,4.053,4.226,4.376,4.503,4.608,4.693,4.76,4.811,4.848,4.874,4.892,4.904,4.911,4.915,4.917,4.918,4.919,4.919,4.92,4.921,4.925,4.93,4.938,4.95,4.966,4.986,5.01,5.039,5.07,5.104,5.139,5.175,5.209,5.241,5.269,5.294,5.315,5.333,5.347,5.359,5.37,5.38,5.39,5.402,5.414,5.428,5.444,5.46,5.477,5.493,5.509,5.523,5.537,5.549,5.56,5.571,5.582,5.594,5.608,5.624,5.642,5.662,5.684,5.706,5.729,5.751,5.771,5.789,5.805,5.817,5.827,5.834,5.839,5.844,5.849,5.855,5.862,5.87,5.88,5.891,5.902,5.913,5.923,5.93,5.934,5.936,5.934,5.928,5.92,5.911,5.9,5.889,5.878,5.869,5.861,5.854,5.849,5.844,5.838,5.833,5.826,5.817,5.807,5.795,5.781,5.768,5.754,5.741,5.73,5.722,5.716,5.712,5.711,5.712,5.713,5.715,5.716,5.715,5.713,5.709,5.703,5.696,5.688,5.68,5.673,5.667,5.662,5.66,5.66,5.661,5.663,5.665,5.667,5.668,5.666,5.663,5.658,5.651,5.643,5.635,5.627,5.621,5.617,5.616,5.618,5.622,5.629,5.637,5.647,5.657,5.666,5.673,5.68,5.684,5.687,5.689,5.689,5.69,5.691,5.693,5.696,5.7,5.704,5.708,5.712,5.714,5.713,5.71,5.703,5.693,5.679,5.662,5.643,5.622,5.601,5.579,5.558,5.537,5.517,5.497,5.476,5.454,5.43,5.403,5.372,5.338,5.299,5.258,5.213,5.166,5.118,5.069,5.021,4.974,4.928,4.883,4.84,4.798,4.756,4.713,4.67,4.626,4.58,4.534,4.486,4.439,4.393,4.348,4.306,4.266,4.23,4.198,4.168,4.141,4.117,4.093,4.07,4.047,4.023,3.999,3.974,3.948,3.923,3.9,3.877,3.858,3.841,3.827,3.816,3.807,3.8,3.793,3.787,3.781,3.773,3.764,3.753,3.742,3.73,3.718,3.708,3.699,3.694,3.692,3.693,3.699,3.707,3.718,3.731,3.745,3.759,3.773,3.787,3.8,3.812,3.825,3.838,3.853,3.869,3.886,3.906,3.927,3.95,3.973,3.995,4.017,4.036,4.052,4.065,4.075,4.082,4.087,4.09,4.092,4.095,4.099,4.106,4.115,4.126,4.14,4.156,4.173,4.19,4.207,4.224,4.238,4.251,4.262,4.272,4.28,4.288,4.296,4.305,4.313,4.323,4.332,4.341,4.349,4.355,4.358,4.359,4.355,4.348,4.338,4.325,4.31,4.294,4.278,4.262,4.249,4.238,4.229,4.223,4.219,4.217,4.215,4.213,4.212,4.209,4.206,4.202,4.198,4.194,4.191,4.191,4.193,4.198,4.206,4.217,4.231,4.246,4.262,4.278,4.293,4.307,4.319,4.33,4.339,4.347,4.355,4.363,4.373,4.384,4.397,4.412,4.428,4.446,4.464,4.482,4.498,4.512,4.523,4.532,4.537,4.54,4.541,4.542,4.542,4.544,4.546,4.551,4.559,4.568,4.579,4.591,4.604,4.616,4.627,4.636,4.644,4.65,4.655,4.659,4.664,4.669,4.676,4.684,4.695,4.707,4.721,4.737,4.752,4.768,4.782,4.795,4.806,4.815,4.823,4.83,4.837,4.844,4.853,4.864,4.877,4.892,4.909,4.928,4.948,4.967,4.985,5.002,5.016,5.027,5.036,5.042,5.046,5.048,5.05,5.051,5.053,5.056,5.059,5.063,5.067,5.07,5.072,5.071,5.068,5.062,5.053,5.041,5.028,5.013,4.999,4.984,4.972,4.961,4.953,4.947,4.943,4.94,4.938,4.936,4.932,4.927,4.919,4.909,4.897,4.883,4.869,4.853,4.838,4.824,4.812,4.801,4.792,4.785,4.779,4.773,4.768,4.762,4.756,4.749,4.742,4.735,4.728,4.723,4.721,4.721,4.724,4.731,4.742,4.755,4.769,4.785,4.801,4.815,4.828,4.837,4.844,4.848,4.848,4.847,4.844,4.841,4.838,4.835,4.834,4.835,4.836,4.838,4.841,4.843,4.845,4.844,4.843,4.839,4.834,4.828,4.822,4.816,4.812,4.809,4.808,4.809,4.812,4.816,4.822,4.826,4.831,4.833,4.833,4.831,4.827,4.82,4.813,4.804,4.796,4.789,4.784,4.78,4.779,4.779,4.78,4.782,4.783,4.783,4.781,4.778,4.772,4.764,4.754,4.744,4.734,4.725,4.717,4.712,4.709,4.709,4.712,4.717,4.723,4.73,4.736,4.742,4.746,4.75,4.752,4.753,4.754,4.756,4.759,4.763,4.77,4.778,4.788,4.8,4.812,4.823,4.834,4.843,4.85,4.854,4.855,4.855,4.853,4.85,4.847,4.844,4.843,4.844,4.846,4.849,4.854,4.859,4.864,4.868,4.87,4.87,4.868,4.865,4.86,4.854,4.849,4.844,4.841,4.84,4.842,4.847,4.854,4.862,4.872,4.882,4.891,4.9,4.907,4.912,4.916,4.919,4.921,4.924,4.927,4.931,4.936,4.942,4.95,4.958,4.965,4.972,4.976,4.979,4.978,4.975,4.969,4.96,4.95,4.94,4.929,4.92,4.912,4.907,4.903,4.902,4.902,4.904,4.905,4.906,4.905,4.903,4.899,4.894,4.888,4.882,4.875,4.87,4.867,4.867,4.869,4.873,4.88,4.888,4.897,4.907,4.915,4.923,4.928,4.932,4.934,4.935,4.936,4.937,4.938,4.941,4.946,4.952,4.96,4.968,4.977,4.986,4.994,5,5.003,5.005,5.004,5.003,5,4.998,4.996,4.996,4.999,5.005,5.012,5.022,5.034,5.046,5.057,5.067,5.075,5.079,5.08,5.078,5.073,5.066,5.057,5.047,5.038,5.029,5.022,5.017,5.013,5.01,5.007,5.005,5.002,4.998,4.993,4.987,4.981,4.975,4.969,4.965,4.963,4.964,4.969,4.977,4.989,5.004,5.021,5.039,5.058,5.076,5.094,5.11,5.124,5.138,5.15,5.161,5.172,5.184,5.196,5.208,5.222,5.235,5.247,5.257,5.265,5.27,5.27,5.266,5.257,5.243,5.226,5.205,5.182,5.158,5.134,5.11,5.087,5.065,5.044,5.024,5.004,4.983,4.962,4.939,4.915,4.889,4.862,4.835,4.808,4.781,4.757,4.735,4.716,4.699,4.686,4.674,4.664,4.655,4.647,4.637,4.628,4.617,4.605,4.594,4.582,4.573,4.565,4.56,4.559,4.561,4.568,4.578,4.59,4.605,4.621,4.637,4.652,4.666,4.679,4.69,4.699,4.708,4.716,4.725,4.734,4.745,4.757,4.77,4.784,4.799,4.813,4.826,4.838,4.847,4.855,4.859,4.862,4.864,4.864,4.865,4.867,4.871,4.877,4.885,4.896,4.909,4.924,4.941,4.96,4.979,5,5.023,5.049,5.078,5.112,5.153,5.201,5.258,5.324,5.401,5.487,5.583,5.687,5.799,5.915,6.035,6.156,6.276,6.394,6.506,6.611,6.708,6.794,6.867,6.924,6.964,6.984,6.981,6.952,6.895,6.806,6.685,6.53,6.34,6.117,5.861,5.574,5.262,4.928,4.577,4.216,3.851,3.487,3.132,2.791,2.47,2.174,1.906,1.672,1.473,1.312,1.191,1.11,1.07,1.071,1.111,1.188,1.3,1.443,1.614,1.807,2.018,2.242,2.473,2.705,2.935,3.157,3.369,3.566,3.748,3.913,4.061,4.191,4.305,4.404,4.488,4.56,4.621,4.671,4.712,4.744,4.77,4.789,4.803,4.812,4.819,4.823,4.828,4.833,4.841,4.852,4.867,4.886,4.91,4.937,4.967,4.999,5.032,5.063,5.092,5.118,5.14,5.159,5.173,5.184,5.192,5.199,5.204,5.209,5.215,5.221,5.229,5.237,5.245,5.254,5.263,5.271,5.279,5.287,5.295,5.304,5.315,5.328,5.344,5.363,5.387,5.414,5.445,5.478,5.512,5.548,5.582,5.614,5.643,5.668,5.69,5.707,5.721,5.732,5.74,5.747,5.754,5.76,5.766,5.773,5.779,5.785,5.791,5.795,5.797,5.796,5.794,5.79,5.784,5.777,5.771,5.765,5.761,5.759,5.759,5.762,5.767,5.773,5.779,5.786,5.791,5.795,5.796,5.794,5.79,5.784,5.777,5.768,5.76,5.753,5.747,5.743,5.741,5.74,5.742,5.744,5.746,5.748,5.75,5.751,5.751,5.75,5.749,5.749,5.75,5.752,5.757,5.763,5.772,5.783,5.795,5.807,5.819,5.83,5.838,5.845,5.848,5.849,5.848,5.845,5.842,5.839,5.837,5.836,5.837,5.84,5.845,5.851,5.858,5.864,5.869,5.873,5.875,5.874,5.871,5.865,5.858,5.849,5.84,5.831,5.823,5.814,5.806,5.798,5.788,5.778,5.765,5.75,5.732,5.711,5.687,5.661,5.634,5.605,5.577,5.55,5.525,5.502,5.481,5.463,5.445,5.428,5.411,5.392,5.371,5.347,5.32,5.289,5.255,5.218,5.179,5.139,5.097,5.055,5.013,4.97,4.928,4.884,4.84,4.794,4.746,4.695,4.642,4.586,4.528,4.47,4.411,4.353,4.297,4.245,4.196,4.151,4.11,4.073,4.039,4.009,3.98,3.952,3.925,3.899,3.872,3.845,3.818,3.793,3.768,3.746,3.726,3.71,3.696,3.684,3.675,3.668,3.661,3.655,3.649,3.642,3.635,3.627,3.62,3.614,3.609,3.606,3.606,3.61,3.617,3.627,3.64,3.655,3.67,3.685,3.699,3.711,3.721,3.727,3.731,3.733,3.733,3.732,3.731,3.732,3.735,3.74,3.747,3.757,3.768,3.781,3.795,3.808,3.821,3.833,3.844,3.853,3.862,3.871,3.88,3.89,3.901,3.913,3.927,3.942,3.957,3.972,3.985,3.995,4.003,4.007,4.006,4.002,3.995,3.985,3.974,3.962,3.951,3.941,3.933,3.928,3.925,3.925,3.926,3.928,3.93,3.932,3.933,3.934,3.932,3.93,3.928,3.925,3.922,3.921,3.92,3.92,3.921,3.922,3.923,3.922,3.92,3.916,3.908,3.898,3.885,3.871,3.855,3.84,3.825,3.814,3.805,3.801,3.801,3.806,3.815,3.827,3.842,3.859,3.877,3.896,3.914,3.933,3.951,3.968,3.987,4.006,4.026,4.047,4.07,4.093,4.118,4.142,4.165,4.187,4.206,4.221,4.234,4.243,4.249,4.252,4.255,4.256,4.259,4.263,4.269,4.278,4.289,4.303,4.318,4.335,4.352,4.369,4.385,4.399,4.411,4.423,4.433,4.444,4.454,4.466,4.48,4.496,4.514,4.535,4.556,4.579,4.601,4.623,4.643,4.66,4.675,4.687,4.697,4.705,4.711,4.717,4.723,4.73,4.738,4.746,4.756,4.765,4.775,4.783,4.79,4.795,4.797,4.798,4.796,4.793,4.789,4.786,4.784,4.784,4.787,4.792,4.801,4.811,4.824,4.837,4.85,4.862,4.873,4.881,4.886,4.889,4.889,4.887,4.884,4.881,4.877,4.873,4.87,4.867,4.864,4.861,4.856,4.85,4.842,4.832,4.819,4.805,4.789,4.773,4.758,4.744,4.732,4.723,4.717,4.714,4.713,4.714,4.717,4.72,4.722,4.722,4.72,4.716,4.71,4.702,4.692,4.682,4.671,4.662,4.654,4.648,4.644,4.64,4.638,4.636,4.633,4.628,4.622,4.613,4.602,4.589,4.574,4.557,4.541,4.525,4.509,4.495,4.483,4.472,4.462,4.453,4.443,4.432,4.419,4.405,4.388,4.369,4.348,4.327,4.305,4.285,4.266,4.25,4.236,4.225,4.217,4.211,4.206,4.202,4.199,4.194,4.188,4.181,4.173,4.164,4.154,4.145,4.137,4.131,4.126,4.124,4.125,4.127,4.131,4.135,4.139,4.143,4.146,4.147,4.148,4.147,4.147,4.147,4.148,4.152,4.158,4.168,4.181,4.197,4.215,4.235,4.255,4.276,4.296,4.313,4.329,4.343,4.355,4.365,4.375,4.385,4.396,4.407,4.42,4.435,4.451,4.467,4.484,4.499,4.514,4.526,4.536,4.543,4.549,4.553,4.556,4.558,4.562,4.567,4.574,4.583,4.595,4.608,4.622,4.637,4.651,4.663,4.674,4.681,4.686,4.689,4.689,4.687,4.685,4.683,4.681,4.681,4.681,4.682,4.684,4.685,4.686,4.685,4.681,4.675,4.665,4.652,4.637,4.62,4.601,4.582,4.565,4.548,4.534,4.521,4.511,4.503,4.496,4.49,4.483,4.477,4.469,4.46,4.45,4.439,4.428,4.417,4.407,4.398,4.392,4.386,4.383,4.38,4.378,4.375,4.371,4.365,4.357,4.346,4.332,4.317,4.3,4.283,4.266,4.251,4.238,4.228,4.222,4.218,4.217,4.218,4.22,4.223,4.226,4.228,4.229,4.229,4.229,4.228,4.227,4.227,4.229,4.233,4.24,4.248,4.259,4.271,4.283,4.295,4.306,4.315,4.321,4.326,4.328,4.328,4.328,4.327,4.328,4.33,4.335,4.342,4.352,4.365,4.38,4.396,4.413,4.429,4.445,4.461,4.474,4.487,4.5,4.512,4.525,4.539,4.555,4.574,4.595,4.618,4.644,4.67,4.697,4.724,4.75,4.775,4.798,4.819,4.839,4.858,4.876,4.894,4.913,4.932,4.951,4.971,4.99,5.008,5.023,5.035,5.042,5.045,5.042,5.033,5.019,5,4.977,4.951,4.923,4.894,4.866,4.838,4.81,4.784,4.757,4.731,4.703,4.674,4.644,4.611,4.576,4.539,4.501,4.463,4.425,4.389,4.355,4.323,4.294,4.268,4.245,4.223,4.202,4.182,4.162,4.142,4.121,4.1,4.079,4.059,4.041,4.025,4.012,4.003,3.998,3.997,4,4.007,4.015,4.026,4.037,4.048,4.058,4.068,4.076,4.085,4.094,4.103,4.114,4.127,4.143,4.162,4.183,4.206,4.23,4.255,4.28,4.304,4.326,4.346,4.364,4.381,4.395,4.409,4.423,4.438,4.455,4.474,4.496,4.52,4.548,4.578,4.61,4.645,4.681,4.72,4.761,4.806,4.854,4.907,4.966,5.032,5.105,5.187,5.276,5.374,5.478,5.587,5.7,5.815,5.93,6.042,6.149,6.249,6.341,6.422,6.491,6.546,6.585,6.607,6.609,6.59,6.547,6.479,6.383,6.258,6.103,5.917,5.699,5.453,5.178,4.879,4.559,4.224,3.877,3.526,3.176,2.832,2.501,2.188,1.898,1.634,1.4,1.199,1.033,0.904,0.812,0.758,0.742,0.762,0.818,0.908,1.028,1.175,1.347,1.537,1.742,1.956,2.175,2.393,2.606,2.809,3.001,3.177,3.337,3.48,3.606,3.715,3.808,3.888,3.955,4.011,4.058,4.098,4.13,4.157,4.178,4.195,4.209,4.22,4.228,4.236,4.243,4.251,4.26,4.272,4.287,4.304,4.325,4.348,4.372,4.398,4.423,4.446,4.467,4.485,4.5,4.511,4.519,4.525,4.529,4.533,4.536,4.541,4.548,4.556,4.567,4.579,4.592,4.607,4.621,4.636,4.65,4.663,4.677,4.691,4.706,4.723,4.742,4.764,4.79,4.819,4.851,4.885,4.921,4.957,4.993,5.027,5.059,5.087,5.113,5.135,5.155,5.172,5.188,5.202,5.216,5.229,5.243,5.255,5.267,5.277,5.285,5.289,5.29,5.287,5.279,5.268,5.253,5.236,5.217,5.197,5.177,5.159,5.142,5.126,5.113,5.101,5.09,5.08,5.07,5.06,5.049,5.038,5.027,5.016,5.006,4.998,4.993,4.99,4.991,4.996,5.003,5.014,5.026,5.039,5.052,5.064,5.074,5.081,5.086,5.089,5.09,5.089,5.088,5.086,5.085,5.086,5.088,5.091,5.094,5.099,5.103,5.107,5.11,5.111,5.111,5.11,5.108,5.106,5.106,5.107,5.111,5.117,5.127,5.14,5.156,5.173,5.19,5.208,5.223,5.237,5.247,5.253,5.256,5.255,5.251,5.245,5.238,5.229,5.221,5.212,5.203,5.195,5.185,5.176,5.164,5.151,5.136,5.119,5.1,5.079,5.057,5.035,5.013,4.993,4.974,4.957,4.942,4.928,4.914,4.899,4.882,4.862,4.837,4.807,4.771,4.729,4.682,4.628,4.571,4.509,4.446,4.38,4.313,4.246,4.179,4.112,4.044,3.977,3.908,3.839,3.769,3.7,3.63,3.562,3.496,3.432,3.372,3.317,3.267,3.222,3.181,3.145,3.113,3.083,3.055,3.028,3.001,2.973,2.944,2.915,2.885,2.856,2.829,2.803,2.781,2.761,2.745,2.733,2.724,2.718,2.713,2.711,2.709,2.707,2.706,2.706,2.706,2.707,2.711,2.717,2.727,2.74,2.758,2.78,2.805,2.833,2.862,2.893,2.924,2.953,2.981,3.007,3.031,3.053,3.074,3.094,3.113,3.133,3.154,3.175,3.197,3.219,3.241,3.261,3.28,3.296,3.308,3.317,3.322,3.324,3.324,3.321,3.318,3.315,3.312,3.311,3.311,3.313,3.316,3.319,3.322,3.324,3.324,3.322,3.319,3.313,3.305,3.297,3.287,3.277,3.268,3.26,3.252,3.245,3.238,3.231,3.222,3.211,3.197,3.18,3.159,3.133,3.105,3.073,3.04,3.005,2.971,2.939,2.908,2.88,2.855,2.834,2.815,2.798,2.784,2.771,2.76,2.749,2.741,2.733,2.729,2.727,2.729,2.735,2.747,2.763,2.784,2.81,2.839,2.872,2.905,2.94,2.973,3.006,3.036,3.065,3.091,3.117,3.141,3.166,3.191,3.218,3.246,3.276,3.308,3.34,3.373,3.406,3.438,3.468,3.497,3.524,3.549,3.574,3.597,3.621,3.645,3.67,3.697,3.726,3.756,3.786,3.816,3.845,3.871,3.894,3.913,3.927,3.937,3.942,3.943,3.941,3.937,3.931,3.925,3.919,3.913,3.908,3.904,3.899,3.895,3.889,3.883,3.875,3.866,3.855,3.844,3.833,3.824,3.816,3.81,3.808,3.81,3.815,3.822,3.832,3.844,3.855,3.866,3.876,3.884,3.889,3.893,3.894,3.894,3.893,3.891,3.891,3.891,3.893,3.896,3.9,3.904,3.908,3.912,3.914,3.915,3.915,3.912,3.909,3.906,3.903,3.902,3.903,3.906,3.913,3.923,3.936,3.951,3.968,3.986,4.003,4.019,4.032,4.044,4.053,4.059,4.063,4.065,4.067,4.069,4.07,4.073,4.076,4.079,4.083,4.087,4.09,4.091,4.091,4.09,4.087,4.083,4.078,4.074,4.071,4.07,4.071,4.076,4.084,4.095,4.108,4.122,4.137,4.151,4.163,4.172,4.179,4.181,4.18,4.175,4.168,4.158,4.147,4.135,4.123,4.11,4.097,4.084,4.07,4.054,4.036,4.016,3.993,3.967,3.939,3.909,3.878,3.846,3.816,3.786,3.76,3.735,3.713,3.694,3.676,3.659,3.643,3.627,3.609,3.591,3.571,3.55,3.528,3.507,3.487,3.469,3.453,3.441,3.432,3.427,3.425,3.426,3.429,3.432,3.437,3.44,3.443,3.445,3.447,3.448,3.449,3.451,3.454,3.459,3.466,3.475,3.486,3.499,3.513,3.527,3.54,3.553,3.563,3.572,3.58,3.586,3.592,3.598,3.605,3.614,3.625,3.638,3.653,3.671,3.69,3.709,3.728,3.745,3.761,3.774,3.784,3.791,3.797,3.8,3.803,3.805,3.808,3.812,3.817,3.823,3.83,3.838,3.846,3.852,3.858,3.862,3.864,3.865,3.864,3.863,3.862,3.862,3.864,3.868,3.874,3.883,3.894,3.907,3.92,3.933,3.944,3.953,3.959,3.961,3.96,3.955,3.948,3.939,3.928,3.918,3.907,3.897,3.888,3.88,3.873,3.866,3.858,3.848,3.838,3.826,3.811,3.796,3.779,3.763,3.746,3.731,3.718,3.708,3.699,3.693,3.689,3.686,3.684,3.681,3.676,3.67,3.661,3.65,3.637,3.623,3.609,3.595,3.583,3.573,3.566,3.563,3.564,3.568,3.575,3.585,3.596,3.608,3.621,3.634,3.647,3.66,3.674,3.689,3.705,3.722,3.741,3.762,3.784,3.807,3.829,3.85,3.868,3.884,3.895,3.902,3.904,3.902,3.897,3.888,3.877,3.866,3.854,3.842,3.831,3.82,3.81,3.8,3.788,3.775,3.758,3.739,3.715,3.688,3.657,3.624,3.588,3.552,3.516,3.481,3.448,3.417,3.39,3.366,3.344,3.326,3.309,3.295,3.283,3.273,3.265,3.26,3.258,3.259,3.265,3.276,3.291,3.311,3.334,3.36,3.388,3.415,3.442,3.466,3.487,3.503,3.514,3.521,3.522,3.519,3.513,3.505,3.495,3.484,3.473,3.462,3.451,3.44,3.428,3.416,3.403,3.388,3.372,3.356,3.339,3.323,3.309,3.298,3.291,3.288,3.29,3.298,3.311,3.329,3.352,3.379,3.41,3.443,3.48,3.52,3.563,3.611,3.663,3.722,3.788,3.861,3.943,4.033,4.131,4.236,4.347,4.462,4.579,4.696,4.809,4.918,5.02,5.112,5.192,5.259,5.311,5.345,5.36,5.354,5.324,5.269,5.187,5.076,4.934,4.761,4.556,4.322,4.058,3.768,3.457,3.127,2.786,2.439,2.092,1.752,1.425,1.118,0.834,0.579,0.356,0.169,0.02,-0.09,-0.162,-0.194,-0.187,-0.142,-0.062,0.051,0.196,0.368,0.564,0.78,1.01,1.25,1.495,1.74,1.98,2.21,2.428,2.63,2.814,2.98,3.125,3.251,3.359,3.449,3.524,3.584,3.632,3.67,3.697,3.717,3.729,3.734,3.734,3.729,3.721,3.71,3.697,3.684,3.673,3.663,3.656,3.652,3.653,3.657,3.665,3.675,3.687,3.699,3.711,3.722,3.73,3.736,3.739,3.741,3.74,3.739,3.738,3.739,3.741,3.745,3.751,3.761,3.772,3.785,3.798,3.813,3.827,3.84,3.853,3.865,3.877,3.888,3.901,3.915,3.931,3.948,3.967,3.988,4.009,4.031,4.051,4.07,4.086,4.099,4.108,4.114,4.116,4.116,4.113,4.109,4.105,4.101,4.097,4.095,4.093,4.091,4.09,4.088,4.084,4.078,4.07,4.059,4.045,4.03,4.014,3.997,3.98,3.965,3.951,3.94,3.932,3.925,3.921,3.917,3.914,3.911,3.907,3.901,3.894,3.886,3.878,3.869,3.861,3.855,3.851,3.85,3.852,3.857,3.865,3.875,3.886,3.897,3.908,3.919,3.928,3.936,3.943,3.95,3.957,3.965,3.974,3.986,3.999,4.016,4.034,4.054,4.075,4.096,4.117,4.136,4.153,4.169,4.182,4.194,4.205,4.217,4.23,4.244,4.261,4.28,4.302,4.327,4.353,4.381,4.408,4.433,4.457,4.478,4.496,4.511,4.523,4.533,4.541,4.549,4.556,4.563,4.572,4.58,4.589,4.598,4.606,4.612,4.615,4.615,4.611,4.603,4.591,4.575,4.557,4.537,4.514,4.491,4.467,4.442,4.416,4.389,4.36,4.328,4.292,4.252,4.207,4.157,4.101,4.041,3.977,3.909,3.839,3.768,3.695,3.623,3.551,3.479,3.407,3.336,3.264,3.192,3.119,3.045,2.971,2.897,2.824,2.752,2.683,2.618,2.556,2.499,2.447,2.399,2.355,2.314,2.276,2.238,2.201,2.164,2.126,2.087,2.047,2.008,1.969,1.931,1.896,1.864,1.835,1.811,1.79,1.773,1.759,1.747,1.737,1.728,1.72,1.712,1.704,1.697,1.691,1.687,1.685,1.686,1.69,1.698,1.71,1.724,1.742,1.761,1.781,1.802,1.822,1.842,1.861,1.88,1.899,1.918,1.939,1.961,1.986,2.014,2.045,2.079,2.115,2.152,2.19,2.228,2.264,2.298,2.329,2.359,2.386,2.411,2.434,2.458,2.482,2.506,2.532,2.56,2.588,2.617,2.646,2.674,2.7,2.724,2.745,2.762,2.776,2.787,2.796,2.803,2.809,2.816,2.822,2.83,2.838,2.847,2.857,2.866,2.873,2.879,2.881,2.88,2.876,2.868,2.858,2.845,2.83,2.814,2.797,2.781,2.765,2.75,2.735,2.719,2.703,2.685,2.666,2.644,2.62,2.593,2.566,2.537,2.508,2.48,2.454,2.43,2.41,2.393,2.379,2.368,2.36,2.353,2.348,2.342,2.337,2.331,2.325,2.319,2.314,2.31,2.308,2.309,2.313,2.321,2.331,2.345,2.36,2.377,2.394,2.411,2.426,2.439,2.45,2.459,2.466,2.472,2.477,2.482,2.489,2.497,2.506,2.518,2.531,2.545,2.559,2.573,2.586,2.597,2.606,2.613,2.618,2.622,2.625,2.628,2.631,2.637,2.643,2.652,2.662,2.674,2.685,2.697,2.707,2.716,2.722,2.726,2.727,2.727,2.725,2.723,2.721,2.72,2.721,2.725,2.73,2.738,2.747,2.757,2.767,2.776,2.784,2.79,2.794,2.796,2.796,2.796,2.795,2.795,2.795,2.798,2.802,2.808,2.815,2.823,2.831,2.839,2.844,2.848,2.849,2.847,2.843,2.837,2.83,2.822,2.814,2.807,2.802,2.798,2.795,2.793,2.791,2.789,2.785,2.78,2.773,2.764,2.753,2.74,2.726,2.712,2.699,2.688,2.679,2.673,2.67,2.67,2.671,2.675,2.68,2.685,2.69,2.694,2.697,2.7,2.703,2.707,2.711,2.718,2.727,2.739,2.753,2.771,2.791,2.812,2.834,2.855,2.876,2.894,2.911,2.924,2.935,2.944,2.951,2.957,2.963,2.97,2.976,2.984,2.992,3,3.008,3.014,3.018,3.019,3.017,3.011,3.003,2.991,2.977,2.961,2.944,2.928,2.912,2.897,2.883,2.87,2.857,2.844,2.831,2.816,2.799,2.78,2.758,2.734,2.709,2.682,2.656,2.631,2.607,2.586,2.567,2.551,2.538,2.527,2.518,2.51,2.502,2.494,2.486,2.477,2.468,2.46,2.454,2.449,2.446,2.447,2.451,2.458,2.468,2.48,2.494,2.509,2.524,2.537,2.548,2.558,2.565,2.57,2.573,2.575,2.577,2.58,2.583,2.587,2.593,2.6,2.608,2.616,2.623,2.629,2.634,2.636,2.637,2.636,2.634,2.633,2.632,2.632,2.636,2.642,2.652,2.665,2.681,2.699,2.719,2.739,2.759,2.777,2.794,2.809,2.821,2.831,2.84,2.848,2.856,2.864,2.872,2.882,2.891,2.901,2.911,2.919,2.926,2.93,2.932,2.932,2.929,2.924,2.918,2.912,2.906,2.901,2.899,2.898,2.9,2.903,2.908,2.913,2.917,2.919,2.919,2.916,2.91,2.9,2.886,2.871,2.853,2.834,2.814,2.795,2.776,2.758,2.74,2.723,2.705,2.687,2.668,2.647,2.625,2.603,2.579,2.556,2.535,2.515,2.498,2.484,2.475,2.469,2.467,2.468,2.471,2.475,2.479,2.482,2.483,2.483,2.48,2.475,2.468,2.461,2.453,2.445,2.438,2.433,2.429,2.427,2.425,2.424,2.423,2.422,2.419,2.415,2.411,2.405,2.4,2.395,2.392,2.391,2.394,2.401,2.411,2.426,2.444,2.465,2.488,2.512,2.535,2.557,2.578,2.597,2.613,2.628,2.641,2.654,2.666,2.678,2.691,2.704,2.718,2.732,2.746,2.76,2.772,2.782,2.791,2.798,2.805,2.811,2.817,2.825,2.835,2.848,2.865,2.887,2.912,2.941,2.972,3.005,3.038,3.07,3.1,3.128,3.151,3.171,3.188,3.201,3.211,3.218,3.224,3.229,3.233,3.235,3.235,3.234,3.23,3.222,3.211,3.194,3.173,3.147,3.117,3.083,3.047,3.008,2.969,2.93,2.891,2.853,2.817,2.781,2.746,2.71,2.674,2.636,2.597,2.557,2.515,2.472,2.43,2.388,2.349,2.312,2.279,2.249,2.224,2.202,2.184,2.168,2.155,2.143,2.131,2.12,2.109,2.098,2.087,2.077,2.069,2.064,2.061,2.061,2.064,2.07,2.079,2.089,2.1,2.111,2.121,2.129,2.135,2.139,2.14,2.14,2.14,2.139,2.14,2.142,2.146,2.153,2.162,2.173,2.185,2.198,2.21,2.222,2.233,2.242,2.25,2.257,2.265,2.273,2.283,2.297,2.314,2.336,2.364,2.397,2.436,2.481,2.532,2.588,2.649,2.717,2.79,2.87,2.957,3.053,3.157,3.27,3.392,3.524,3.663,3.809,3.959,4.111,4.262,4.407,4.544,4.669,4.779,4.87,4.939,4.984,5.002,4.991,4.949,4.876,4.77,4.629,4.454,4.245,4.002,3.725,3.418,3.082,2.723,2.343,1.95,1.549,1.147,0.751,0.369,0.007,-0.327,-0.63,-0.895,-1.12,-1.301,-1.438,-1.53,-1.578,-1.583,-1.548,-1.474,-1.365,-1.225,-1.057,-0.865,-0.653,-0.426,-0.187,0.056,0.303,0.546,0.783,1.009,1.22,1.413,1.587,1.741,1.873,1.985,2.077,2.151,2.21,2.255,2.289,2.313,2.331,2.344,2.353,2.358,2.362,2.364,2.364,2.364,2.364,2.363,2.364,2.366,2.37,2.378,2.389,2.404,2.423,2.445,2.469,2.496,2.523,2.55,2.576,2.599,2.62,2.637,2.652,2.663,2.672,2.68,2.688,2.695,2.704,2.713,2.725,2.737,2.75,2.763,2.776,2.788,2.798,2.807,2.813,2.818,2.822,2.825,2.828,2.832,2.836,2.842,2.849,2.857,2.865,2.874,2.881,2.888,2.892,2.893,2.893,2.89,2.885,2.88,2.874,2.87,2.866,2.866,2.867,2.872,2.878,2.887,2.896,2.905,2.913,2.919,2.923,2.924,2.923,2.919,2.914,2.908,2.902,2.896,2.891,2.887,2.885,2.885,2.885,2.885,2.885,2.884,2.882,2.878,2.873,2.868,2.861,2.856,2.851,2.849,2.849,2.852,2.858,2.866,2.877,2.89,2.903,2.916,2.927,2.937,2.945,2.952,2.956,2.959,2.962,2.964,2.967,2.972,2.977,2.984,2.991,2.999,3.006,3.011,3.014,3.014,3.011,3.005,2.996,2.984,2.972,2.959,2.947,2.938,2.931,2.927,2.926,2.929,2.935,2.943,2.952,2.963,2.973,2.983,2.992,3.001,3.01,3.019,3.028,3.038,3.049,3.061,3.074,3.087,3.099,3.109,3.116,3.119,3.118,3.111,3.098,3.079,3.054,3.025,2.992,2.955,2.916,2.876,2.835,2.793,2.75,2.706,2.661,2.613,2.563,2.51,2.454,2.396,2.335,2.272,2.209,2.146,2.084,2.025,1.969,1.917,1.869,1.824,1.783,1.744,1.706,1.67,1.633,1.596,1.558,1.52,1.481,1.442,1.404,1.367,1.332,1.298,1.266,1.235,1.206,1.177,1.148,1.118,1.086,1.053,1.018,0.982,0.946,0.909,0.874,0.841,0.812,0.786,0.766,0.75,0.74,0.734,0.731,0.732,0.735,0.739,0.745,0.75,0.757,0.763,0.771,0.78,0.791,0.803,0.818,0.835,0.854,0.874,0.895,0.915,0.933,0.95,0.964,0.975,0.983,0.989,0.992,0.994,0.997,0.999,1.004,1.01,1.019,1.03,1.043,1.058,1.072,1.087,1.1,1.112,1.122,1.13,1.135,1.14,1.143,1.147,1.15,1.155,1.161,1.168,1.175,1.183,1.191,1.197,1.202,1.203,1.202,1.198,1.191,1.181,1.17,1.158,1.146,1.134,1.124,1.116,1.109,1.104,1.101,1.097,1.094,1.091,1.086,1.08,1.073,1.066,1.059,1.052,1.047,1.044,1.043,1.046,1.052,1.06,1.07,1.082,1.094,1.104,1.113,1.12,1.124,1.125,1.123,1.12,1.116,1.111,1.106,1.103,1.102,1.102,1.105,1.108,1.113,1.119,1.124,1.129,1.133,1.136,1.139,1.142,1.146,1.151,1.158,1.168,1.182,1.198,1.218,1.241,1.265,1.29,1.315,1.339,1.362,1.383,1.401,1.417,1.431,1.443,1.455,1.466,1.477,1.488,1.5,1.512,1.523,1.533,1.541,1.547,1.549,1.549,1.544,1.537,1.528,1.517,1.506,1.496,1.487,1.482,1.48,1.481,1.486,1.494,1.504,1.516,1.529,1.541,1.552,1.561,1.57,1.576,1.582,1.587,1.592,1.597,1.603,1.609,1.616,1.623,1.629,1.634,1.638,1.638,1.636,1.632,1.624,1.614,1.603,1.592,1.582,1.573,1.567,1.564,1.564,1.568,1.575,1.584,1.594,1.605,1.616,1.625,1.633,1.639,1.644,1.647,1.649,1.65,1.651,1.653,1.654,1.656,1.659,1.66,1.661,1.66,1.657,1.651,1.643,1.633,1.621,1.608,1.595,1.583,1.574,1.568,1.565,1.567,1.572,1.581,1.593,1.606,1.62,1.635,1.648,1.659,1.668,1.676,1.681,1.684,1.686,1.688,1.689,1.691,1.693,1.695,1.698,1.699,1.7,1.7,1.697,1.692,1.684,1.675,1.664,1.652,1.64,1.629,1.62,1.614,1.61,1.608,1.609,1.612,1.615,1.619,1.622,1.623,1.622,1.619,1.614,1.606,1.597,1.588,1.579,1.57,1.563,1.558,1.554,1.551,1.55,1.548,1.546,1.543,1.538,1.531,1.523,1.513,1.503,1.492,1.482,1.474,1.468,1.464,1.463,1.465,1.468,1.473,1.477,1.481,1.484,1.485,1.483,1.48,1.474,1.468,1.461,1.454,1.449,1.446,1.445,1.446,1.451,1.457,1.464,1.472,1.48,1.486,1.491,1.495,1.497,1.497,1.496,1.496,1.495,1.495,1.497,1.5,1.504,1.509,1.515,1.521,1.526,1.529,1.531,1.53,1.528,1.525,1.521,1.517,1.515,1.514,1.517,1.522,1.531,1.542,1.556,1.572,1.589,1.606,1.621,1.635,1.647,1.656,1.664,1.67,1.675,1.68,1.685,1.69,1.696,1.702,1.708,1.714,1.719,1.72,1.719,1.714,1.705,1.692,1.675,1.654,1.631,1.607,1.582,1.558,1.536,1.516,1.497,1.481,1.467,1.455,1.443,1.431,1.42,1.408,1.396,1.384,1.372,1.361,1.352,1.345,1.34,1.339,1.34,1.343,1.347,1.352,1.357,1.36,1.36,1.358,1.351,1.342,1.329,1.314,1.297,1.278,1.26,1.242,1.225,1.21,1.196,1.183,1.171,1.159,1.147,1.135,1.123,1.11,1.098,1.086,1.076,1.069,1.065,1.065,1.069,1.078,1.091,1.107,1.126,1.146,1.168,1.188,1.207,1.223,1.238,1.249,1.259,1.266,1.273,1.279,1.285,1.292,1.299,1.307,1.315,1.323,1.33,1.335,1.338,1.339,1.338,1.335,1.33,1.325,1.32,1.317,1.315,1.317,1.322,1.33,1.342,1.356,1.373,1.39,1.409,1.427,1.444,1.459,1.473,1.486,1.498,1.51,1.521,1.532,1.544,1.555,1.567,1.578,1.587,1.595,1.599,1.599,1.596,1.588,1.577,1.562,1.544,1.525,1.505,1.486,1.468,1.453,1.441,1.431,1.424,1.42,1.417,1.414,1.412,1.41,1.407,1.403,1.398,1.393,1.388,1.384,1.381,1.379,1.378,1.378,1.379,1.379,1.379,1.376,1.371,1.363,1.352,1.337,1.32,1.301,1.28,1.26,1.241,1.225,1.211,1.202,1.196,1.194,1.195,1.2,1.206,1.213,1.221,1.229,1.238,1.246,1.255,1.264,1.275,1.287,1.301,1.316,1.334,1.353,1.372,1.391,1.408,1.423,1.434,1.442,1.445,1.445,1.44,1.433,1.423,1.412,1.4,1.388,1.376,1.364,1.352,1.34,1.327,1.313,1.295,1.275,1.252,1.225,1.196,1.164,1.131,1.097,1.064,1.033,1.005,0.979,0.956,0.937,0.92,0.906,0.894,0.882,0.872,0.863,0.854,0.847,0.841,0.837,0.837,0.84,0.848,0.859,0.875,0.895,0.918,0.943,0.97,0.996,1.021,1.045,1.065,1.084,1.099,1.112,1.123,1.132,1.14,1.147,1.154,1.16,1.165,1.168,1.17,1.169,1.166,1.159,1.149,1.136,1.121,1.105,1.088,1.072,1.058,1.047,1.04,1.038,1.041,1.049,1.061,1.078,1.099,1.124,1.152,1.184,1.221,1.263,1.31,1.365,1.429,1.502,1.585,1.678,1.782,1.896,2.019,2.149,2.284,2.423,2.561,2.698,2.83,2.955,3.07,3.172,3.26,3.329,3.378,3.403,3.402,3.372,3.31,3.213,3.079,2.907,2.696,2.447,2.161,1.841,1.491,1.116,0.722,0.316,-0.093,-0.5,-0.897,-1.276,-1.631,-1.955,-2.244,-2.495,-2.703,-2.867,-2.986,-3.058,-3.086,-3.07,-3.011,-2.912,-2.776,-2.608,-2.41,-2.19,-1.95,-1.698,-1.438,-1.177,-0.919,-0.67,-0.434,-0.213,-0.012,0.169,0.329,0.468,0.587,0.686,0.769,0.835,0.888,0.929,0.96,0.981,0.996,1.004,1.007,1.006,1.002,0.996,0.991,0.986,0.984,0.985,0.991,1.003,1.019,1.042,1.069,1.101,1.135,1.172,1.208,1.244,1.277,1.308,1.335,1.359,1.379,1.397,1.414,1.429,1.444,1.459,1.474,1.49,1.505,1.521,1.536,1.55,1.563,1.573,1.582,1.589,1.595,1.601,1.607,1.613,1.622,1.632,1.644,1.659,1.675,1.691,1.708,1.723,1.736,1.747,1.754,1.758,1.758,1.755,1.75,1.743,1.735,1.727,1.719,1.712,1.706,1.699,1.693,1.686,1.677,1.666,1.654,1.639,1.622,1.603,1.584,1.565,1.547,1.531,1.518,1.508,1.501,1.498,1.497,1.497,1.499,1.5,1.501,1.5,1.497,1.492,1.485,1.477,1.469,1.461,1.454,1.449,1.446,1.445,1.447,1.451,1.456,1.462,1.468,1.472,1.476,1.478,1.479,1.478,1.478,1.477,1.477,1.479,1.482,1.488,1.496,1.506,1.517,1.528,1.54,1.551,1.562,1.571,1.578,1.585,1.592,1.599,1.607,1.618,1.631,1.646,1.665,1.686,1.709,1.733,1.757,1.78,1.802,1.822,1.838,1.852,1.864,1.873,1.881,1.888,1.894,1.901,1.908,1.915,1.922,1.928,1.933,1.935,1.935,1.93,1.922,1.91,1.893,1.874,1.852,1.827,1.802,1.777,1.751,1.727,1.702,1.678,1.653,1.627,1.599,1.567,1.533,1.494,1.452,1.406,1.356,1.305,1.252,1.197,1.143,1.089,1.036,0.983,0.931,0.878,0.825,0.77,0.713,0.655,0.594,0.532,0.469,0.406,0.343,0.281,0.222,0.166,0.113,0.063,0.015,-0.028,-0.071,-0.113,-0.155,-0.198,-0.241,-0.285,-0.33,-0.375,-0.42,-0.464,-0.505,-0.544,-0.58,-0.612,-0.64,-0.665,-0.687,-0.707,-0.726,-0.743,-0.76,-0.776,-0.792,-0.807,-0.82,-0.832,-0.841,-0.847,-0.849,-0.846,-0.841,-0.831,-0.819,-0.805,-0.789,-0.774,-0.759,-0.745,-0.733,-0.722,-0.712,-0.703,-0.694,-0.683,-0.671,-0.657,-0.639,-0.619,-0.596,-0.572,-0.546,-0.52,-0.494,-0.47,-0.448,-0.427,-0.409,-0.393,-0.378,-0.364,-0.349,-0.335,-0.319,-0.302,-0.283,-0.264,-0.245,-0.226,-0.208,-0.192,-0.178,-0.167,-0.158,-0.152,-0.146,-0.142,-0.137,-0.131,-0.124,-0.115,-0.104,-0.091,-0.076,-0.061,-0.047,-0.033,-0.022,-0.013,-0.007,-0.005,-0.005,-0.007,-0.011,-0.016,-0.021,-0.026,-0.029,-0.031,-0.033,-0.034,-0.034,-0.036,-0.038,-0.042,-0.047,-0.055,-0.064,-0.074,-0.085,-0.095,-0.104,-0.111,-0.115,-0.117,-0.116,-0.112,-0.107,-0.101,-0.094,-0.087,-0.081,-0.076,-0.072,-0.069,-0.066,-0.063,-0.059,-0.053,-0.045,-0.036,-0.024,-0.01,0.003,0.018,0.032,0.045,0.056,0.064,0.07,0.073,0.073,0.072,0.07,0.069,0.068,0.069,0.072,0.078,0.085,0.095,0.105,0.116,0.126,0.135,0.143,0.149,0.154,0.157,0.16,0.162,0.164,0.167,0.172,0.178,0.185,0.193,0.202,0.21,0.217,0.222,0.226,0.227,0.227,0.226,0.224,0.223,0.223,0.225,0.23,0.238,0.249,0.263,0.28,0.297,0.315,0.331,0.347,0.359,0.369,0.375,0.378,0.379,0.378,0.376,0.373,0.37,0.368,0.366,0.365,0.364,0.363,0.361,0.358,0.353,0.347,0.338,0.329,0.318,0.308,0.298,0.29,0.283,0.28,0.279,0.28,0.282,0.286,0.29,0.293,0.293,0.292,0.287,0.28,0.269,0.257,0.243,0.229,0.215,0.202,0.191,0.183,0.176,0.172,0.17,0.169,0.168,0.167,0.166,0.164,0.162,0.159,0.157,0.156,0.157,0.16,0.167,0.176,0.188,0.202,0.219,0.236,0.253,0.268,0.282,0.294,0.302,0.308,0.311,0.312,0.311,0.31,0.309,0.308,0.308,0.308,0.309,0.309,0.309,0.306,0.302,0.296,0.287,0.275,0.261,0.246,0.231,0.216,0.202,0.191,0.181,0.174,0.17,0.167,0.166,0.164,0.163,0.159,0.154,0.147,0.137,0.126,0.114,0.102,0.09,0.079,0.071,0.066,0.063,0.062,0.063,0.066,0.069,0.071,0.073,0.073,0.072,0.07,0.066,0.063,0.06,0.058,0.059,0.061,0.066,0.074,0.084,0.095,0.106,0.118,0.128,0.137,0.144,0.15,0.153,0.156,0.157,0.16,0.163,0.168,0.175,0.184,0.195,0.207,0.22,0.233,0.245,0.256,0.265,0.271,0.276,0.279,0.28,0.282,0.284,0.286,0.291,0.298,0.306,0.316,0.327,0.338,0.348,0.356,0.362,0.365,0.364,0.361,0.356,0.349,0.341,0.334,0.327,0.323,0.32,0.319,0.321,0.324,0.327,0.33,0.332,0.333,0.332,0.329,0.324,0.318,0.311,0.304,0.298,0.293,0.29,0.288,0.289,0.29,0.292,0.294,0.295,0.294,0.291,0.285,0.276,0.265,0.251,0.237,0.222,0.208,0.194,0.182,0.17,0.16,0.15,0.141,0.131,0.12,0.108,0.094,0.079,0.062,0.045,0.029,0.014,0.001,-0.008,-0.015,-0.019,-0.019,-0.016,-0.011,-0.004,0.002,0.008,0.013,0.017,0.018,0.018,0.017,0.015,0.013,0.013,0.013,0.016,0.02,0.027,0.035,0.045,0.054,0.063,0.071,0.078,0.082,0.085,0.087,0.087,0.088,0.088,0.09,0.094,0.099,0.106,0.115,0.125,0.135,0.144,0.153,0.16,0.166,0.169,0.172,0.173,0.175,0.177,0.181,0.187,0.196,0.208,0.223,0.24,0.259,0.278,0.297,0.314,0.328,0.34,0.349,0.354,0.356,0.356,0.355,0.353,0.35,0.348,0.346,0.344,0.342,0.339,0.335,0.33,0.322,0.311,0.298,0.282,0.264,0.245,0.226,0.207,0.19,0.174,0.162,0.151,0.144,0.138,0.134,0.131,0.128,0.125,0.12,0.115,0.11,0.104,0.099,0.095,0.093,0.093,0.096,0.103,0.111,0.122,0.135,0.148,0.16,0.171,0.18,0.186,0.189,0.19,0.189,0.187,0.183,0.18,0.179,0.178,0.18,0.183,0.188,0.195,0.202,0.21,0.218,0.225,0.232,0.239,0.246,0.254,0.264,0.276,0.291,0.309,0.33,0.355,0.382,0.41,0.44,0.468,0.495,0.518,0.539,0.555,0.567,0.574,0.579,0.58,0.578,0.575,0.571,0.566,0.56,0.553,0.544,0.533,0.52,0.504,0.485,0.462,0.435,0.406,0.375,0.343,0.31,0.278,0.248,0.22,0.195,0.172,0.152,0.134,0.117,0.1,0.084,0.067,0.05,0.033,0.016,0,-0.015,-0.028,-0.038,-0.045,-0.049,-0.049,-0.047,-0.042,-0.036,-0.03,-0.025,-0.022,-0.021,-0.022,-0.027,-0.033,-0.041,-0.05,-0.059,-0.068,-0.076,-0.083,-0.088,-0.093,-0.097,-0.102,-0.107,-0.113,-0.121,-0.131,-0.142,-0.155,-0.168,-0.181,-0.194,-0.204,-0.212,-0.218,-0.22,-0.22,-0.217,-0.213,-0.207,-0.2,-0.192,-0.183,-0.173,-0.16,-0.144,-0.124,-0.097,-0.062,-0.018,0.036,0.102,0.18,0.27,0.371,0.483,0.604,0.732,0.865,1.003,1.144,1.285,1.425,1.562,1.695,1.821,1.938,2.043,2.133,2.205,2.254,2.278,2.272,2.233,2.159,2.046,1.894,1.703,1.472,1.205,0.904,0.572,0.216,-0.16,-0.55,-0.947,-1.346,-1.74,-2.122,-2.486,-2.828,-3.14,-3.42,-3.662,-3.862,-4.019,-4.129,-4.193,-4.209,-4.178,-4.103,-3.987,-3.833,-3.646,-3.433,-3.198,-2.948,-2.689,-2.426,-2.166,-1.912,-1.669,-1.438,-1.224,-1.027,-0.847,-0.686,-0.544,-0.419,-0.312,-0.222,-0.149,-0.09,-0.046,-0.015,0.003,0.013,0.015,0.01,0.002,-0.006,-0.015,-0.022,-0.025,-0.024,-0.017,-0.006,0.009,0.028,0.05,0.074,0.097,0.12,0.141,0.161,0.178,0.193,0.206,0.219,0.231,0.242,0.254,0.266,0.277,0.289,0.298,0.307,0.313,0.316,0.317,0.315,0.312,0.307,0.301,0.296,0.293,0.292,0.294,0.299,0.308,0.32,0.334,0.35,0.366,0.382,0.398,0.411,0.423,0.433,0.441,0.448,0.455,0.462,0.469,0.477,0.486,0.496,0.506,0.515,0.524,0.531,0.535,0.537,0.537,0.534,0.529,0.523,0.516,0.51,0.505,0.502,0.5,0.501,0.503,0.507,0.51,0.514,0.516,0.516,0.514,0.509,0.502,0.493,0.482,0.471,0.46,0.449,0.44,0.432,0.426,0.421,0.416,0.411,0.406,0.4,0.392,0.383,0.372,0.36,0.349,0.337,0.328,0.321,0.317,0.317,0.321,0.329,0.34,0.353,0.368,0.384,0.4,0.415,0.429,0.441,0.452,0.463,0.473,0.483,0.493,0.505,0.518,0.532,0.547,0.562,0.577,0.591,0.603,0.612,0.62,0.625,0.628,0.63,0.631,0.633,0.636,0.642,0.649,0.66,0.673,0.688,0.704,0.72,0.736,0.749,0.76,0.768,0.773,0.774,0.772,0.767,0.761,0.753,0.745,0.737,0.728,0.718,0.708,0.696,0.681,0.663,0.641,0.614,0.582,0.545,0.504,0.459,0.41,0.359,0.307,0.254,0.2,0.145,0.09,0.035,-0.021,-0.08,-0.141,-0.204,-0.27,-0.339,-0.41,-0.482,-0.554,-0.625,-0.694,-0.76,-0.822,-0.881,-0.934,-0.984,-1.03,-1.073,-1.115,-1.155,-1.195,-1.235,-1.276,-1.317,-1.359,-1.4,-1.441,-1.481,-1.519,-1.555,-1.588,-1.62,-1.65,-1.678,-1.706,-1.734,-1.761,-1.789,-1.817,-1.846,-1.873,-1.9,-1.924,-1.945,-1.963,-1.976,-1.985,-1.989,-1.989,-1.986,-1.981,-1.974,-1.966,-1.958,-1.951,-1.945,-1.94,-1.935,-1.93,-1.925,-1.917,-1.908,-1.896,-1.881,-1.863,-1.843,-1.822,-1.799,-1.777,-1.756,-1.736,-1.718,-1.703,-1.69,-1.678,-1.668,-1.659,-1.649,-1.64,-1.629,-1.618,-1.607,-1.595,-1.584,-1.574,-1.567,-1.561,-1.559,-1.559,-1.562,-1.567,-1.573,-1.579,-1.585,-1.588,-1.588,-1.586,-1.579,-1.569,-1.557,-1.542,-1.525,-1.508,-1.491,-1.474,-1.459,-1.445,-1.431,-1.419,-1.407,-1.394,-1.381,-1.367,-1.352,-1.337,-1.322,-1.308,-1.295,-1.285,-1.277,-1.273,-1.272,-1.274,-1.279,-1.286,-1.294,-1.302,-1.308,-1.312,-1.314,-1.312,-1.307,-1.299,-1.289,-1.277,-1.265,-1.253,-1.241,-1.23,-1.221,-1.212,-1.203,-1.195,-1.186,-1.176,-1.164,-1.15,-1.135,-1.119,-1.102,-1.085,-1.069,-1.055,-1.044,-1.035,-1.029,-1.025,-1.024,-1.025,-1.026,-1.027,-1.027,-1.026,-1.023,-1.018,-1.012,-1.005,-0.997,-0.99,-0.984,-0.979,-0.976,-0.974,-0.974,-0.974,-0.974,-0.973,-0.97,-0.965,-0.957,-0.947,-0.934,-0.919,-0.904,-0.889,-0.874,-0.862,-0.852,-0.845,-0.841,-0.839,-0.839,-0.84,-0.842,-0.843,-0.843,-0.841,-0.838,-0.833,-0.826,-0.819,-0.813,-0.807,-0.803,-0.801,-0.801,-0.803,-0.806,-0.811,-0.816,-0.821,-0.824,-0.826,-0.826,-0.824,-0.82,-0.815,-0.809,-0.803,-0.798,-0.795,-0.792,-0.791,-0.792,-0.793,-0.794,-0.795,-0.795,-0.793,-0.789,-0.784,-0.777,-0.77,-0.763,-0.757,-0.753,-0.751,-0.753,-0.757,-0.765,-0.775,-0.787,-0.8,-0.813,-0.824,-0.834,-0.841,-0.846,-0.848,-0.847,-0.845,-0.841,-0.838,-0.834,-0.831,-0.83,-0.829,-0.828,-0.828,-0.827,-0.825,-0.822,-0.817,-0.809,-0.8,-0.789,-0.778,-0.767,-0.756,-0.747,-0.739,-0.734,-0.73,-0.728,-0.726,-0.724,-0.722,-0.718,-0.711,-0.702,-0.69,-0.675,-0.658,-0.64,-0.622,-0.605,-0.589,-0.575,-0.563,-0.555,-0.549,-0.544,-0.541,-0.539,-0.536,-0.533,-0.528,-0.522,-0.515,-0.507,-0.499,-0.492,-0.486,-0.482,-0.48,-0.481,-0.483,-0.487,-0.493,-0.498,-0.503,-0.508,-0.51,-0.512,-0.511,-0.51,-0.509,-0.508,-0.509,-0.511,-0.517,-0.525,-0.537,-0.552,-0.569,-0.588,-0.607,-0.626,-0.644,-0.66,-0.675,-0.688,-0.699,-0.71,-0.72,-0.73,-0.741,-0.753,-0.766,-0.78,-0.794,-0.809,-0.822,-0.834,-0.843,-0.849,-0.853,-0.853,-0.85,-0.846,-0.841,-0.836,-0.833,-0.831,-0.833,-0.837,-0.844,-0.853,-0.864,-0.875,-0.887,-0.897,-0.905,-0.911,-0.914,-0.914,-0.911,-0.907,-0.901,-0.894,-0.886,-0.878,-0.869,-0.86,-0.85,-0.839,-0.825,-0.809,-0.79,-0.769,-0.745,-0.72,-0.694,-0.667,-0.643,-0.62,-0.601,-0.586,-0.576,-0.57,-0.568,-0.569,-0.574,-0.579,-0.586,-0.592,-0.598,-0.602,-0.605,-0.607,-0.608,-0.609,-0.611,-0.613,-0.616,-0.62,-0.625,-0.63,-0.634,-0.638,-0.64,-0.64,-0.638,-0.633,-0.627,-0.619,-0.611,-0.604,-0.598,-0.594,-0.594,-0.598,-0.605,-0.615,-0.629,-0.644,-0.661,-0.677,-0.693,-0.707,-0.72,-0.73,-0.739,-0.746,-0.753,-0.76,-0.768,-0.777,-0.787,-0.798,-0.81,-0.822,-0.834,-0.844,-0.853,-0.859,-0.862,-0.863,-0.861,-0.858,-0.854,-0.85,-0.846,-0.844,-0.844,-0.845,-0.849,-0.854,-0.86,-0.866,-0.872,-0.876,-0.879,-0.879,-0.877,-0.874,-0.87,-0.865,-0.86,-0.856,-0.853,-0.852,-0.852,-0.852,-0.852,-0.852,-0.85,-0.846,-0.839,-0.828,-0.813,-0.795,-0.775,-0.752,-0.729,-0.705,-0.682,-0.661,-0.641,-0.624,-0.608,-0.594,-0.581,-0.567,-0.554,-0.539,-0.523,-0.505,-0.486,-0.466,-0.445,-0.425,-0.406,-0.388,-0.372,-0.358,-0.345,-0.333,-0.322,-0.31,-0.297,-0.283,-0.266,-0.248,-0.228,-0.207,-0.185,-0.165,-0.147,-0.131,-0.12,-0.113,-0.111,-0.113,-0.121,-0.132,-0.147,-0.165,-0.185,-0.206,-0.229,-0.254,-0.28,-0.307,-0.337,-0.37,-0.406,-0.444,-0.485,-0.529,-0.573,-0.618,-0.663,-0.706,-0.746,-0.783,-0.817,-0.846,-0.871,-0.893,-0.913,-0.93,-0.946,-0.962,-0.979,-0.995,-1.011,-1.028,-1.044,-1.058,-1.07,-1.08,-1.086,-1.089,-1.089,-1.087,-1.082,-1.077,-1.071,-1.066,-1.063,-1.062,-1.063,-1.065,-1.069,-1.074,-1.079,-1.083,-1.086,-1.086,-1.085,-1.082,-1.077,-1.071,-1.065,-1.059,-1.055,-1.053,-1.053,-1.055,-1.058,-1.063,-1.067,-1.071,-1.074,-1.073,-1.07,-1.064,-1.053,-1.039,-1.021,-1,-0.975,-0.947,-0.914,-0.877,-0.835,-0.787,-0.731,-0.666,-0.592,-0.507,-0.412,-0.306,-0.19,-0.066,0.064,0.201,0.34,0.48,0.618,0.751,0.876,0.992,1.096,1.186,1.259,1.313,1.346,1.354,1.337,1.29,1.212,1.099,0.952,0.768,0.548,0.291,0.001,-0.318,-0.666,-1.034,-1.418,-1.81,-2.204,-2.592,-2.967,-3.323,-3.654,-3.955,-4.22,-4.447,-4.633,-4.776,-4.876,-4.931,-4.943,-4.913,-4.842,-4.733,-4.59,-4.416,-4.215,-3.993,-3.754,-3.505,-3.251,-2.997,-2.749,-2.511,-2.287,-2.081,-1.893,-1.726,-1.579,-1.453,-1.346,-1.256,-1.182,-1.121,-1.072,-1.033,-1.002,-0.978,-0.96,-0.947,-0.937,-0.929,-0.924,-0.919,-0.913,-0.906,-0.897,-0.885,-0.869,-0.849,-0.825,-0.798,-0.769,-0.739,-0.708,-0.679,-0.653,-0.63,-0.611,-0.596,-0.586,-0.58,-0.577,-0.576,-0.576,-0.576,-0.575,-0.573,-0.569,-0.564,-0.556,-0.547,-0.537,-0.527,-0.517,-0.507,-0.497,-0.487,-0.476,-0.464,-0.451,-0.435,-0.417,-0.396,-0.372,-0.346,-0.319,-0.292,-0.265,-0.239,-0.216,-0.196,-0.18,-0.167,-0.158,-0.151,-0.146,-0.142,-0.139,-0.136,-0.131,-0.126,-0.12,-0.113,-0.106,-0.1,-0.095,-0.092,-0.09,-0.091,-0.093,-0.097,-0.101,-0.105,-0.109,-0.111,-0.111,-0.108,-0.104,-0.099,-0.093,-0.086,-0.081,-0.077,-0.075,-0.075,-0.079,-0.084,-0.092,-0.1,-0.11,-0.119,-0.126,-0.133,-0.138,-0.142,-0.145,-0.147,-0.15,-0.153,-0.157,-0.163,-0.171,-0.18,-0.19,-0.199,-0.208,-0.215,-0.22,-0.221,-0.218,-0.212,-0.202,-0.189,-0.175,-0.16,-0.144,-0.13,-0.117,-0.107,-0.099,-0.093,-0.089,-0.086,-0.083,-0.08,-0.077,-0.073,-0.068,-0.062,-0.056,-0.05,-0.045,-0.04,-0.038,-0.037,-0.038,-0.04,-0.043,-0.046,-0.049,-0.05,-0.049,-0.047,-0.042,-0.037,-0.03,-0.023,-0.018,-0.014,-0.014,-0.018,-0.025,-0.037,-0.054,-0.073,-0.096,-0.121,-0.147,-0.174,-0.201,-0.229,-0.257,-0.286,-0.316,-0.348,-0.382,-0.418,-0.458,-0.501,-0.547,-0.595,-0.644,-0.694,-0.744,-0.793,-0.84,-0.886,-0.931,-0.974,-1.016,-1.059,-1.102,-1.146,-1.193,-1.241,-1.292,-1.345,-1.399,-1.454,-1.509,-1.562,-1.614,-1.664,-1.711,-1.756,-1.798,-1.839,-1.879,-1.918,-1.958,-1.998,-2.039,-2.08,-2.12,-2.16,-2.197,-2.232,-2.262,-2.288,-2.309,-2.325,-2.336,-2.343,-2.347,-2.348,-2.347,-2.346,-2.345,-2.344,-2.343,-2.343,-2.342,-2.34,-2.337,-2.333,-2.326,-2.317,-2.306,-2.293,-2.279,-2.266,-2.253,-2.242,-2.232,-2.226,-2.221,-2.218,-2.217,-2.216,-2.215,-2.212,-2.207,-2.2,-2.19,-2.177,-2.161,-2.145,-2.127,-2.109,-2.092,-2.077,-2.064,-2.053,-2.043,-2.036,-2.03,-2.025,-2.019,-2.014,-2.008,-2.002,-1.996,-1.991,-1.987,-1.984,-1.984,-1.988,-1.994,-2.004,-2.016,-2.031,-2.047,-2.063,-2.078,-2.092,-2.104,-2.113,-2.119,-2.123,-2.124,-2.125,-2.125,-2.125,-2.126,-2.128,-2.131,-2.134,-2.139,-2.143,-2.147,-2.149,-2.149,-2.147,-2.143,-2.137,-2.13,-2.122,-2.114,-2.106,-2.1,-2.096,-2.094,-2.094,-2.095,-2.097,-2.099,-2.1,-2.1,-2.097,-2.091,-2.083,-2.072,-2.059,-2.045,-2.03,-2.015,-2.001,-1.988,-1.977,-1.967,-1.957,-1.948,-1.938,-1.927,-1.915,-1.9,-1.882,-1.863,-1.841,-1.818,-1.795,-1.773,-1.751,-1.731,-1.713,-1.697,-1.683,-1.67,-1.658,-1.646,-1.634,-1.62,-1.606,-1.59,-1.573,-1.555,-1.538,-1.523,-1.509,-1.499,-1.491,-1.487,-1.485,-1.486,-1.489,-1.493,-1.496,-1.498,-1.497,-1.494,-1.489,-1.48,-1.469,-1.457,-1.445,-1.432,-1.42,-1.409,-1.4,-1.393,-1.387,-1.381,-1.375,-1.369,-1.362,-1.352,-1.341,-1.328,-1.314,-1.299,-1.284,-1.27,-1.256,-1.245,-1.236,-1.229,-1.224,-1.22,-1.216,-1.212,-1.207,-1.201,-1.192,-1.182,-1.171,-1.159,-1.147,-1.136,-1.128,-1.123,-1.121,-1.123,-1.13,-1.139,-1.152,-1.167,-1.183,-1.198,-1.213,-1.227,-1.238,-1.248,-1.256,-1.263,-1.27,-1.277,-1.284,-1.293,-1.303,-1.315,-1.327,-1.339,-1.351,-1.362,-1.37,-1.377,-1.38,-1.381,-1.379,-1.376,-1.371,-1.366,-1.361,-1.357,-1.354,-1.352,-1.352,-1.351,-1.351,-1.351,-1.349,-1.345,-1.341,-1.334,-1.327,-1.318,-1.31,-1.304,-1.299,-1.296,-1.297,-1.3,-1.307,-1.315,-1.326,-1.336,-1.347,-1.356,-1.364,-1.369,-1.372,-1.372,-1.37,-1.368,-1.364,-1.361,-1.359,-1.358,-1.359,-1.362,-1.365,-1.369,-1.373,-1.377,-1.379,-1.38,-1.38,-1.379,-1.377,-1.375,-1.374,-1.375,-1.378,-1.383,-1.391,-1.402,-1.415,-1.43,-1.444,-1.459,-1.471,-1.481,-1.488,-1.492,-1.493,-1.491,-1.487,-1.483,-1.479,-1.476,-1.474,-1.475,-1.478,-1.484,-1.491,-1.5,-1.509,-1.518,-1.526,-1.533,-1.539,-1.543,-1.547,-1.55,-1.552,-1.555,-1.558,-1.562,-1.567,-1.572,-1.576,-1.579,-1.581,-1.579,-1.574,-1.566,-1.553,-1.538,-1.519,-1.498,-1.476,-1.453,-1.432,-1.412,-1.395,-1.38,-1.367,-1.356,-1.347,-1.338,-1.328,-1.318,-1.307,-1.294,-1.28,-1.265,-1.25,-1.235,-1.222,-1.211,-1.202,-1.195,-1.192,-1.191,-1.191,-1.193,-1.195,-1.197,-1.199,-1.199,-1.197,-1.195,-1.192,-1.19,-1.188,-1.188,-1.189,-1.194,-1.2,-1.209,-1.219,-1.231,-1.242,-1.253,-1.263,-1.271,-1.278,-1.282,-1.285,-1.287,-1.289,-1.292,-1.296,-1.302,-1.31,-1.32,-1.332,-1.346,-1.361,-1.375,-1.388,-1.4,-1.41,-1.418,-1.424,-1.429,-1.433,-1.436,-1.441,-1.446,-1.454,-1.463,-1.475,-1.488,-1.501,-1.515,-1.528,-1.539,-1.548,-1.554,-1.557,-1.557,-1.554,-1.549,-1.542,-1.534,-1.525,-1.516,-1.506,-1.495,-1.483,-1.469,-1.453,-1.434,-1.411,-1.385,-1.355,-1.323,-1.288,-1.252,-1.215,-1.179,-1.145,-1.114,-1.086,-1.062,-1.041,-1.023,-1.009,-0.997,-0.987,-0.978,-0.97,-0.964,-0.96,-0.957,-0.957,-0.96,-0.968,-0.98,-0.997,-1.019,-1.045,-1.075,-1.108,-1.143,-1.178,-1.212,-1.245,-1.276,-1.303,-1.328,-1.35,-1.369,-1.386,-1.402,-1.416,-1.43,-1.442,-1.454,-1.464,-1.473,-1.479,-1.481,-1.481,-1.477,-1.469,-1.458,-1.445,-1.431,-1.416,-1.401,-1.388,-1.377,-1.369,-1.364,-1.361,-1.36,-1.361,-1.363,-1.364,-1.365,-1.366,-1.364,-1.363,-1.36,-1.358,-1.356,-1.356,-1.358,-1.362,-1.369,-1.379,-1.39,-1.403,-1.416,-1.429,-1.44,-1.449,-1.456,-1.46,-1.461,-1.46,-1.457,-1.452,-1.447,-1.44,-1.432,-1.422,-1.41,-1.396,-1.377,-1.352,-1.321,-1.283,-1.237,-1.182,-1.119,-1.047,-0.969,-0.885,-0.796,-0.703,-0.609,-0.514,-0.42,-0.327,-0.237,-0.152,-0.072,0,0.065,0.118,0.158,0.182,0.187,0.17,0.127,0.058,-0.04,-0.169,-0.33,-0.521,-0.742,-0.99,-1.262,-1.554,-1.862,-2.181,-2.505,-2.83,-3.151,-3.462,-3.759,-4.037,-4.291,-4.519,-4.717,-4.881,-5.009,-5.099,-5.15,-5.16,-5.131,-5.062,-4.957,-4.818,-4.648,-4.453,-4.237,-4.005,-3.763,-3.515,-3.267,-3.023,-2.787,-2.561,-2.349,-2.15,-1.967,-1.8,-1.649,-1.514,-1.394,-1.289,-1.199,-1.124,-1.061,-1.012,-0.974,-0.947,-0.928,-0.918,-0.913,-0.911,-0.912,-0.912,-0.912,-0.908,-0.902,-0.892,-0.879,-0.864,-0.848,-0.831,-0.816,-0.802,-0.792,-0.784,-0.781,-0.781,-0.784,-0.79,-0.798,-0.807,-0.817,-0.827,-0.838,-0.85,-0.862,-0.876,-0.892,-0.909,-0.929,-0.951,-0.975,-1,-1.024,-1.047,-1.068,-1.086,-1.099,-1.107,-1.11,-1.108,-1.102,-1.092,-1.079,-1.064,-1.049,-1.034,-1.019,-1.006,-0.993,-0.981,-0.969,-0.957,-0.944,-0.93,-0.915,-0.898,-0.881,-0.864,-0.847,-0.832,-0.818,-0.807,-0.799,-0.794,-0.792,-0.792,-0.794,-0.796,-0.798,-0.8,-0.8,-0.798,-0.795,-0.791,-0.786,-0.78,-0.775,-0.771,-0.769,-0.768,-0.769,-0.77,-0.772,-0.774,-0.774,-0.771,-0.766,-0.758,-0.746,-0.731,-0.713,-0.694,-0.673,-0.652,-0.632,-0.614,-0.596,-0.581,-0.567,-0.553,-0.54,-0.526,-0.511,-0.494,-0.475,-0.453,-0.43,-0.406,-0.382,-0.358,-0.335,-0.314,-0.296,-0.281,-0.268,-0.256,-0.246,-0.237,-0.227,-0.215,-0.203,-0.188,-0.172,-0.154,-0.136,-0.118,-0.101,-0.085,-0.073,-0.063,-0.055,-0.051,-0.049,-0.048,-0.048,-0.048,-0.048,-0.046,-0.044,-0.041,-0.038,-0.036,-0.035,-0.037,-0.041,-0.05,-0.062,-0.079,-0.1,-0.124,-0.15,-0.179,-0.208,-0.238,-0.269,-0.299,-0.331,-0.363,-0.396,-0.432,-0.471,-0.514,-0.56,-0.61,-0.664,-0.721,-0.78,-0.841,-0.902,-0.963,-1.023,-1.082,-1.14,-1.196,-1.252,-1.307,-1.364,-1.421,-1.48,-1.541,-1.604,-1.668,-1.732,-1.797,-1.861,-1.923,-1.982,-2.038,-2.092,-2.142,-2.189,-2.234,-2.278,-2.321,-2.364,-2.407,-2.451,-2.495,-2.538,-2.582,-2.623,-2.662,-2.698,-2.73,-2.758,-2.782,-2.802,-2.818,-2.832,-2.844,-2.855,-2.867,-2.878,-2.89,-2.903,-2.916,-2.928,-2.939,-2.948,-2.955,-2.958,-2.958,-2.955,-2.948,-2.939,-2.927,-2.915,-2.902,-2.89,-2.878,-2.867,-2.857,-2.847,-2.837,-2.825,-2.812,-2.797,-2.779,-2.759,-2.737,-2.712,-2.687,-2.662,-2.637,-2.613,-2.591,-2.571,-2.553,-2.536,-2.521,-2.507,-2.492,-2.477,-2.46,-2.442,-2.422,-2.402,-2.381,-2.36,-2.34,-2.322,-2.306,-2.293,-2.283,-2.276,-2.272,-2.269,-2.267,-2.265,-2.263,-2.26,-2.256,-2.251,-2.244,-2.238,-2.231,-2.226,-2.222,-2.22,-2.221,-2.224,-2.229,-2.234,-2.241,-2.246,-2.25,-2.252,-2.252,-2.249,-2.244,-2.237,-2.229,-2.222,-2.215,-2.21,-2.207,-2.208,-2.211,-2.216,-2.223,-2.231,-2.239,-2.246,-2.252,-2.256,-2.258,-2.257,-2.255,-2.251,-2.247,-2.242,-2.238,-2.235,-2.233,-2.231,-2.229,-2.227,-2.224,-2.219,-2.212,-2.203,-2.19,-2.175,-2.157,-2.139,-2.119,-2.1,-2.083,-2.067,-2.053,-2.042,-2.033,-2.027,-2.021,-2.016,-2.011,-2.005,-1.998,-1.989,-1.98,-1.97,-1.959,-1.949,-1.94,-1.933,-1.928,-1.925,-1.924,-1.924,-1.925,-1.926,-1.925,-1.923,-1.918,-1.91,-1.899,-1.885,-1.869,-1.852,-1.835,-1.817,-1.801,-1.787,-1.774,-1.764,-1.755,-1.748,-1.741,-1.734,-1.726,-1.717,-1.706,-1.694,-1.682,-1.668,-1.656,-1.644,-1.633,-1.625,-1.619,-1.616,-1.614,-1.614,-1.614,-1.614,-1.612,-1.609,-1.604,-1.597,-1.587,-1.576,-1.564,-1.552,-1.54,-1.531,-1.523,-1.518,-1.515,-1.515,-1.515,-1.517,-1.519,-1.52,-1.519,-1.517,-1.512,-1.506,-1.499,-1.491,-1.483,-1.475,-1.469,-1.464,-1.461,-1.459,-1.458,-1.458,-1.457,-1.456,-1.452,-1.446,-1.438,-1.428,-1.416,-1.403,-1.39,-1.378,-1.367,-1.358,-1.352,-1.349,-1.349,-1.351,-1.354,-1.358,-1.363,-1.367,-1.37,-1.373,-1.374,-1.375,-1.375,-1.377,-1.38,-1.385,-1.392,-1.401,-1.412,-1.425,-1.439,-1.452,-1.465,-1.476,-1.484,-1.49,-1.493,-1.494,-1.493,-1.491,-1.49,-1.489,-1.49,-1.494,-1.501,-1.511,-1.523,-1.537,-1.554,-1.57,-1.587,-1.604,-1.619,-1.634,-1.648,-1.662,-1.675,-1.69,-1.706,-1.723,-1.743,-1.763,-1.785,-1.808,-1.831,-1.852,-1.871,-1.888,-1.901,-1.911,-1.917,-1.92,-1.921,-1.919,-1.917,-1.913,-1.91,-1.907,-1.904,-1.9,-1.896,-1.89,-1.883,-1.873,-1.86,-1.845,-1.827,-1.807,-1.785,-1.763,-1.742,-1.722,-1.704,-1.688,-1.676,-1.665,-1.656,-1.648,-1.64,-1.63,-1.618,-1.604,-1.586,-1.564,-1.539,-1.511,-1.48,-1.448,-1.415,-1.382,-1.35,-1.318,-1.287,-1.258,-1.228,-1.2,-1.171,-1.143,-1.114,-1.086,-1.06,-1.035,-1.012,-0.994,-0.98,-0.971,-0.967,-0.969,-0.977,-0.989,-1.006,-1.025,-1.046,-1.068,-1.09,-1.111,-1.131,-1.15,-1.168,-1.185,-1.203,-1.222,-1.243,-1.265,-1.29,-1.316,-1.344,-1.373,-1.403,-1.431,-1.459,-1.485,-1.509,-1.531,-1.551,-1.571,-1.589,-1.607,-1.625,-1.643,-1.662,-1.682,-1.701,-1.719,-1.736,-1.751,-1.762,-1.77,-1.774,-1.775,-1.772,-1.766,-1.759,-1.751,-1.744,-1.738,-1.735,-1.735,-1.737,-1.742,-1.75,-1.759,-1.77,-1.78,-1.79,-1.799,-1.806,-1.812,-1.817,-1.821,-1.825,-1.828,-1.832,-1.836,-1.841,-1.844,-1.847,-1.848,-1.846,-1.84,-1.83,-1.814,-1.794,-1.768,-1.737,-1.702,-1.662,-1.62,-1.575,-1.527,-1.477,-1.425,-1.369,-1.31,-1.246,-1.176,-1.1,-1.017,-0.926,-0.828,-0.723,-0.613,-0.498,-0.38,-0.262,-0.145,-0.033,0.073,0.171,0.259,0.335,0.396,0.44,0.466,0.471,0.453,0.41,0.341,0.243,0.115,-0.043,-0.233,-0.452,-0.7,-0.974,-1.27,-1.583,-1.909,-2.242,-2.575,-2.903,-3.219,-3.518,-3.795,-4.045,-4.265,-4.452,-4.604,-4.72,-4.8,-4.844,-4.852,-4.825,-4.765,-4.675,-4.555,-4.41,-4.243,-4.057,-3.857,-3.646,-3.429,-3.21,-2.994,-2.785,-2.585,-2.398,-2.226,-2.069,-1.929,-1.806,-1.698,-1.605,-1.526,-1.459,-1.403,-1.357,-1.319,-1.29,-1.267,-1.251,-1.241,-1.236,-1.236,-1.24,-1.247,-1.255,-1.265,-1.273,-1.28,-1.285,-1.287,-1.286,-1.282,-1.276,-1.269,-1.26,-1.252,-1.245,-1.241,-1.238,-1.238,-1.239,-1.243,-1.247,-1.252,-1.256,-1.258,-1.258,-1.256,-1.251,-1.244,-1.235,-1.226,-1.215,-1.204,-1.194,-1.183,-1.172,-1.16,-1.148,-1.133,-1.115,-1.095,-1.07,-1.042,-1.01,-0.976,-0.939,-0.902,-0.865,-0.829,-0.796,-0.765,-0.737,-0.713,-0.692,-0.673,-0.655,-0.638,-0.62,-0.602,-0.583,-0.563,-0.542,-0.521,-0.5,-0.481,-0.463,-0.447,-0.435,-0.425,-0.419,-0.414,-0.412,-0.41,-0.41,-0.409,-0.409,-0.408,-0.407,-0.406,-0.407,-0.41,-0.415,-0.423,-0.434,-0.448,-0.465,-0.484,-0.504,-0.524,-0.543,-0.561,-0.575,-0.586,-0.594,-0.599,-0.6,-0.6,-0.599,-0.597,-0.596,-0.595,-0.596,-0.598,-0.601,-0.604,-0.608,-0.61,-0.612,-0.612,-0.61,-0.607,-0.603,-0.598,-0.594,-0.591,-0.59,-0.592,-0.596,-0.602,-0.611,-0.622,-0.633,-0.645,-0.655,-0.664,-0.67,-0.675,-0.677,-0.677,-0.677,-0.676,-0.675,-0.676,-0.679,-0.684,-0.691,-0.701,-0.712,-0.723,-0.735,-0.746,-0.755,-0.763,-0.769,-0.773,-0.775,-0.777,-0.779,-0.782,-0.786,-0.793,-0.801,-0.811,-0.823,-0.837,-0.851,-0.865,-0.879,-0.892,-0.905,-0.917,-0.929,-0.942,-0.957,-0.974,-0.994,-1.018,-1.046,-1.079,-1.115,-1.154,-1.196,-1.239,-1.283,-1.326,-1.369,-1.412,-1.453,-1.495,-1.536,-1.578,-1.621,-1.667,-1.715,-1.765,-1.817,-1.87,-1.925,-1.979,-2.032,-2.083,-2.131,-2.177,-2.218,-2.257,-2.292,-2.325,-2.357,-2.387,-2.417,-2.446,-2.475,-2.504,-2.532,-2.557,-2.581,-2.601,-2.617,-2.629,-2.636,-2.639,-2.638,-2.634,-2.627,-2.619,-2.61,-2.602,-2.594,-2.586,-2.58,-2.574,-2.568,-2.561,-2.553,-2.544,-2.532,-2.519,-2.504,-2.488,-2.472,-2.456,-2.442,-2.43,-2.42,-2.413,-2.409,-2.407,-2.406,-2.406,-2.405,-2.404,-2.401,-2.396,-2.388,-2.379,-2.369,-2.359,-2.349,-2.341,-2.335,-2.332,-2.331,-2.334,-2.339,-2.345,-2.353,-2.362,-2.369,-2.376,-2.382,-2.386,-2.39,-2.392,-2.395,-2.399,-2.404,-2.411,-2.42,-2.431,-2.444,-2.458,-2.472,-2.487,-2.5,-2.512,-2.522,-2.53,-2.536,-2.542,-2.546,-2.551,-2.557,-2.564,-2.573,-2.585,-2.598,-2.613,-2.628,-2.643,-2.656,-2.668,-2.677,-2.683,-2.685,-2.685,-2.683,-2.678,-2.673,-2.668,-2.664,-2.661,-2.659,-2.659,-2.66,-2.661,-2.662,-2.661,-2.659,-2.654,-2.647,-2.638,-2.626,-2.612,-2.597,-2.581,-2.565,-2.55,-2.535,-2.521,-2.506,-2.492,-2.475,-2.457,-2.436,-2.412,-2.384,-2.352,-2.316,-2.278,-2.237,-2.195,-2.154,-2.113,-2.073,-2.035,-2,-1.967,-1.935,-1.904,-1.874,-1.844,-1.813,-1.781,-1.749,-1.715,-1.682,-1.649,-1.617,-1.587,-1.559,-1.534,-1.511,-1.492,-1.475,-1.459,-1.444,-1.43,-1.416,-1.4,-1.385,-1.369,-1.352,-1.337,-1.323,-1.312,-1.304,-1.3,-1.3,-1.304,-1.312,-1.322,-1.336,-1.35,-1.365,-1.38,-1.393,-1.406,-1.417,-1.427,-1.437,-1.446,-1.457,-1.468,-1.48,-1.495,-1.51,-1.526,-1.542,-1.558,-1.572,-1.585,-1.594,-1.602,-1.606,-1.608,-1.609,-1.609,-1.609,-1.61,-1.613,-1.618,-1.626,-1.636,-1.649,-1.663,-1.678,-1.693,-1.708,-1.721,-1.734,-1.744,-1.754,-1.763,-1.772,-1.78,-1.79,-1.801,-1.813,-1.825,-1.838,-1.85,-1.861,-1.869,-1.874,-1.874,-1.87,-1.862,-1.849,-1.832,-1.812,-1.79,-1.768,-1.745,-1.723,-1.703,-1.684,-1.667,-1.65,-1.635,-1.619,-1.603,-1.586,-1.568,-1.548,-1.527,-1.505,-1.484,-1.462,-1.443,-1.425,-1.409,-1.395,-1.384,-1.374,-1.365,-1.356,-1.346,-1.335,-1.323,-1.309,-1.293,-1.276,-1.259,-1.243,-1.228,-1.216,-1.207,-1.203,-1.202,-1.206,-1.214,-1.225,-1.238,-1.253,-1.269,-1.286,-1.302,-1.32,-1.337,-1.356,-1.376,-1.397,-1.421,-1.448,-1.477,-1.507,-1.539,-1.571,-1.602,-1.632,-1.659,-1.682,-1.702,-1.719,-1.731,-1.741,-1.749,-1.756,-1.762,-1.77,-1.778,-1.788,-1.799,-1.811,-1.824,-1.837,-1.849,-1.86,-1.868,-1.874,-1.878,-1.879,-1.879,-1.877,-1.874,-1.872,-1.869,-1.867,-1.865,-1.863,-1.861,-1.857,-1.851,-1.842,-1.83,-1.814,-1.794,-1.771,-1.744,-1.715,-1.684,-1.652,-1.621,-1.589,-1.558,-1.528,-1.499,-1.47,-1.44,-1.41,-1.38,-1.348,-1.315,-1.282,-1.249,-1.217,-1.188,-1.161,-1.139,-1.121,-1.109,-1.101,-1.098,-1.1,-1.104,-1.111,-1.119,-1.127,-1.135,-1.141,-1.147,-1.151,-1.156,-1.161,-1.167,-1.176,-1.187,-1.202,-1.22,-1.241,-1.265,-1.291,-1.318,-1.346,-1.374,-1.401,-1.427,-1.452,-1.477,-1.5,-1.524,-1.549,-1.574,-1.6,-1.627,-1.655,-1.683,-1.71,-1.735,-1.758,-1.778,-1.794,-1.806,-1.814,-1.819,-1.82,-1.82,-1.819,-1.818,-1.817,-1.818,-1.82,-1.824,-1.828,-1.833,-1.838,-1.842,-1.844,-1.844,-1.842,-1.837,-1.83,-1.823,-1.815,-1.807,-1.801,-1.797,-1.795,-1.795,-1.797,-1.801,-1.805,-1.81,-1.813,-1.814,-1.812,-1.807,-1.798,-1.785,-1.77,-1.75,-1.727,-1.701,-1.672,-1.638,-1.599,-1.555,-1.503,-1.444,-1.375,-1.295,-1.205,-1.103,-0.991,-0.868,-0.736,-0.597,-0.453,-0.306,-0.158,-0.012,0.129,0.264,0.391,0.507,0.609,0.696,0.765,0.813,0.838,0.836,0.805,0.743,0.647,0.515,0.346,0.141,-0.1,-0.374,-0.68,-1.011,-1.364,-1.732,-2.109,-2.489,-2.863,-3.227,-3.573,-3.896,-4.192,-4.455,-4.683,-4.873,-5.022,-5.13,-5.195,-5.218,-5.199,-5.14,-5.043,-4.91,-4.745,-4.552,-4.336,-4.103,-3.857,-3.605,-3.352,-3.103,-2.863,-2.636,-2.424,-2.231,-2.057,-1.903,-1.77,-1.656,-1.561,-1.483,-1.422,-1.374,-1.34,-1.318,-1.307,-1.305,-1.311,-1.324,-1.342,-1.365,-1.389,-1.413,-1.436,-1.456,-1.472,-1.482,-1.485,-1.483,-1.474,-1.46,-1.441,-1.419,-1.395,-1.37,-1.345,-1.32,-1.297,-1.275,-1.254,-1.233,-1.213,-1.192,-1.17,-1.146,-1.122,-1.097,-1.071,-1.046,-1.021,-0.998,-0.977,-0.959,-0.943,-0.929,-0.917,-0.906,-0.895,-0.884,-0.871,-0.856,-0.84,-0.821,-0.801,-0.779,-0.757,-0.735,-0.714,-0.694,-0.676,-0.659,-0.644,-0.63,-0.617,-0.603,-0.588,-0.571,-0.553,-0.534,-0.513,-0.491,-0.47,-0.449,-0.431,-0.415,-0.402,-0.393,-0.388,-0.386,-0.386,-0.389,-0.392,-0.396,-0.399,-0.401,-0.402,-0.402,-0.402,-0.402,-0.402,-0.404,-0.408,-0.415,-0.424,-0.434,-0.447,-0.461,-0.474,-0.487,-0.498,-0.507,-0.514,-0.518,-0.52,-0.521,-0.52,-0.519,-0.519,-0.52,-0.522,-0.525,-0.529,-0.534,-0.539,-0.543,-0.545,-0.545,-0.542,-0.537,-0.529,-0.519,-0.509,-0.498,-0.488,-0.479,-0.472,-0.468,-0.466,-0.467,-0.469,-0.472,-0.476,-0.48,-0.482,-0.484,-0.484,-0.484,-0.483,-0.481,-0.481,-0.481,-0.483,-0.487,-0.492,-0.499,-0.507,-0.515,-0.522,-0.528,-0.531,-0.532,-0.531,-0.527,-0.521,-0.513,-0.505,-0.498,-0.492,-0.488,-0.487,-0.488,-0.492,-0.499,-0.507,-0.517,-0.528,-0.539,-0.551,-0.563,-0.577,-0.592,-0.61,-0.631,-0.656,-0.686,-0.721,-0.762,-0.807,-0.856,-0.909,-0.964,-1.021,-1.077,-1.133,-1.188,-1.242,-1.294,-1.345,-1.395,-1.445,-1.497,-1.549,-1.602,-1.657,-1.712,-1.769,-1.824,-1.879,-1.931,-1.981,-2.027,-2.069,-2.108,-2.144,-2.176,-2.207,-2.236,-2.265,-2.294,-2.323,-2.353,-2.382,-2.411,-2.439,-2.464,-2.487,-2.506,-2.521,-2.532,-2.539,-2.542,-2.542,-2.539,-2.535,-2.531,-2.525,-2.52,-2.514,-2.508,-2.501,-2.494,-2.484,-2.472,-2.458,-2.44,-2.421,-2.4,-2.378,-2.355,-2.333,-2.312,-2.294,-2.279,-2.266,-2.255,-2.247,-2.24,-2.233,-2.226,-2.218,-2.208,-2.196,-2.182,-2.166,-2.148,-2.13,-2.113,-2.096,-2.082,-2.07,-2.059,-2.052,-2.045,-2.04,-2.035,-2.03,-2.023,-2.015,-2.005,-1.993,-1.98,-1.966,-1.952,-1.939,-1.927,-1.916,-1.908,-1.902,-1.897,-1.894,-1.892,-1.889,-1.885,-1.881,-1.875,-1.868,-1.859,-1.851,-1.843,-1.835,-1.83,-1.828,-1.829,-1.833,-1.84,-1.851,-1.863,-1.876,-1.891,-1.904,-1.918,-1.93,-1.941,-1.951,-1.962,-1.972,-1.983,-1.995,-2.01,-2.026,-2.044,-2.063,-2.083,-2.103,-2.122,-2.138,-2.152,-2.163,-2.17,-2.173,-2.173,-2.171,-2.166,-2.161,-2.154,-2.147,-2.14,-2.132,-2.124,-2.114,-2.102,-2.088,-2.07,-2.049,-2.025,-1.996,-1.966,-1.932,-1.898,-1.864,-1.831,-1.799,-1.77,-1.744,-1.72,-1.698,-1.678,-1.658,-1.638,-1.617,-1.595,-1.57,-1.544,-1.516,-1.487,-1.457,-1.428,-1.399,-1.372,-1.347,-1.324,-1.303,-1.284,-1.266,-1.248,-1.229,-1.211,-1.191,-1.17,-1.148,-1.126,-1.105,-1.085,-1.067,-1.052,-1.041,-1.033,-1.029,-1.029,-1.031,-1.035,-1.041,-1.047,-1.053,-1.059,-1.063,-1.068,-1.072,-1.076,-1.082,-1.088,-1.097,-1.107,-1.119,-1.133,-1.147,-1.162,-1.176,-1.189,-1.2,-1.209,-1.214,-1.218,-1.219,-1.219,-1.219,-1.219,-1.221,-1.225,-1.231,-1.24,-1.251,-1.264,-1.278,-1.293,-1.307,-1.32,-1.331,-1.341,-1.348,-1.354,-1.36,-1.364,-1.37,-1.376,-1.384,-1.393,-1.404,-1.416,-1.43,-1.443,-1.455,-1.466,-1.476,-1.483,-1.487,-1.49,-1.491,-1.491,-1.491,-1.491,-1.491,-1.492,-1.495,-1.498,-1.501,-1.504,-1.506,-1.506,-1.502,-1.496,-1.487,-1.474,-1.459,-1.442,-1.424,-1.406,-1.389,-1.373,-1.359,-1.347,-1.336,-1.327,-1.319,-1.311,-1.303,-1.294,-1.283,-1.272,-1.26,-1.249,-1.238,-1.228,-1.221,-1.217,-1.217,-1.22,-1.227,-1.237,-1.249,-1.262,-1.276,-1.288,-1.299,-1.307,-1.314,-1.318,-1.32,-1.321,-1.321,-1.322,-1.325,-1.329,-1.336,-1.344,-1.355,-1.367,-1.38,-1.394,-1.406,-1.418,-1.428,-1.437,-1.445,-1.452,-1.459,-1.465,-1.473,-1.481,-1.49,-1.5,-1.51,-1.52,-1.529,-1.537,-1.542,-1.543,-1.542,-1.537,-1.529,-1.519,-1.508,-1.496,-1.485,-1.475,-1.467,-1.462,-1.459,-1.458,-1.458,-1.459,-1.46,-1.46,-1.458,-1.455,-1.449,-1.441,-1.431,-1.42,-1.408,-1.396,-1.385,-1.375,-1.366,-1.357,-1.348,-1.339,-1.328,-1.316,-1.3,-1.282,-1.26,-1.235,-1.207,-1.176,-1.144,-1.111,-1.078,-1.046,-1.015,-0.984,-0.955,-0.926,-0.898,-0.869,-0.839,-0.809,-0.778,-0.746,-0.715,-0.684,-0.655,-0.629,-0.607,-0.589,-0.578,-0.572,-0.572,-0.576,-0.586,-0.599,-0.615,-0.632,-0.65,-0.669,-0.688,-0.706,-0.725,-0.746,-0.767,-0.791,-0.818,-0.848,-0.881,-0.918,-0.957,-0.997,-1.039,-1.081,-1.123,-1.163,-1.202,-1.24,-1.277,-1.314,-1.35,-1.387,-1.425,-1.465,-1.506,-1.549,-1.593,-1.636,-1.679,-1.72,-1.757,-1.79,-1.819,-1.843,-1.861,-1.875,-1.884,-1.889,-1.892,-1.893,-1.892,-1.891,-1.888,-1.885,-1.881,-1.875,-1.867,-1.857,-1.844,-1.829,-1.811,-1.792,-1.772,-1.751,-1.732,-1.714,-1.698,-1.685,-1.675,-1.667,-1.66,-1.655,-1.649,-1.643,-1.635,-1.624,-1.61,-1.594,-1.574,-1.553,-1.529,-1.503,-1.476,-1.448,-1.418,-1.386,-1.351,-1.312,-1.267,-1.215,-1.155,-1.085,-1.004,-0.912,-0.808,-0.694,-0.569,-0.434,-0.292,-0.144,0.008,0.164,0.321,0.478,0.632,0.782,0.925,1.06,1.183,1.291,1.381,1.448,1.49,1.502,1.481,1.424,1.327,1.191,1.013,0.795,0.538,0.245,-0.078,-0.431,-0.805,-1.196,-1.596,-1.999,-2.4,-2.79,-3.165,-3.518,-3.845,-4.139,-4.397,-4.615,-4.789,-4.919,-5.001,-5.036,-5.024,-4.967,-4.869,-4.732,-4.561,-4.362,-4.141,-3.905,-3.658,-3.408,-3.16,-2.918,-2.688,-2.472,-2.273,-2.092,-1.931,-1.79,-1.668,-1.566,-1.483,-1.417,-1.368,-1.335,-1.316,-1.31,-1.315,-1.33,-1.353,-1.38,-1.41,-1.44,-1.469,-1.493,-1.512,-1.525,-1.53,-1.527,-1.517,-1.501,-1.479,-1.453,-1.425,-1.395,-1.364,-1.334,-1.304,-1.274,-1.246,-1.217,-1.188,-1.159,-1.13,-1.1,-1.07,-1.041,-1.013,-0.986,-0.963,-0.943,-0.926,-0.913,-0.904,-0.897,-0.892,-0.889,-0.885,-0.881,-0.874,-0.865,-0.853,-0.838,-0.821,-0.802,-0.781,-0.76,-0.738,-0.717,-0.696,-0.675,-0.654,-0.632,-0.609,-0.584,-0.558,-0.528,-0.497,-0.464,-0.43,-0.395,-0.361,-0.329,-0.3,-0.274,-0.252,-0.235,-0.221,-0.21,-0.202,-0.195,-0.189,-0.183,-0.177,-0.17,-0.162,-0.153,-0.145,-0.137,-0.131,-0.127,-0.124,-0.125,-0.127,-0.131,-0.137,-0.142,-0.147,-0.151,-0.153,-0.152,-0.15,-0.146,-0.141,-0.135,-0.131,-0.128,-0.128,-0.131,-0.138,-0.148,-0.161,-0.176,-0.193,-0.211,-0.228,-0.245,-0.26,-0.274,-0.286,-0.297,-0.308,-0.318,-0.329,-0.341,-0.353,-0.366,-0.379,-0.392,-0.404,-0.414,-0.422,-0.427,-0.429,-0.428,-0.424,-0.418,-0.411,-0.403,-0.396,-0.39,-0.387,-0.385,-0.386,-0.389,-0.393,-0.398,-0.402,-0.406,-0.408,-0.408,-0.406,-0.402,-0.397,-0.391,-0.385,-0.379,-0.376,-0.374,-0.373,-0.375,-0.378,-0.383,-0.387,-0.391,-0.394,-0.395,-0.396,-0.395,-0.393,-0.392,-0.393,-0.395,-0.4,-0.409,-0.423,-0.44,-0.462,-0.487,-0.516,-0.546,-0.579,-0.612,-0.646,-0.679,-0.714,-0.748,-0.784,-0.822,-0.861,-0.903,-0.949,-0.997,-1.048,-1.101,-1.155,-1.21,-1.264,-1.317,-1.368,-1.417,-1.463,-1.507,-1.549,-1.589,-1.629,-1.669,-1.709,-1.75,-1.791,-1.832,-1.873,-1.913,-1.951,-1.985,-2.016,-2.043,-2.065,-2.083,-2.096,-2.107,-2.115,-2.122,-2.128,-2.135,-2.142,-2.15,-2.159,-2.169,-2.178,-2.187,-2.194,-2.199,-2.202,-2.202,-2.2,-2.197,-2.193,-2.188,-2.184,-2.181,-2.181,-2.182,-2.185,-2.189,-2.194,-2.199,-2.204,-2.207,-2.207,-2.205,-2.2,-2.193,-2.184,-2.174,-2.164,-2.154,-2.145,-2.138,-2.132,-2.128,-2.126,-2.124,-2.121,-2.118,-2.114,-2.107,-2.099,-2.088,-2.075,-2.061,-2.046,-2.032,-2.019,-2.007,-1.997,-1.989,-1.983,-1.977,-1.972,-1.967,-1.961,-1.953,-1.944,-1.932,-1.919,-1.905,-1.891,-1.877,-1.865,-1.855,-1.848,-1.845,-1.845,-1.848,-1.853,-1.86,-1.868,-1.876,-1.884,-1.89,-1.895,-1.899,-1.902,-1.905,-1.908,-1.912,-1.917,-1.924,-1.932,-1.94,-1.95,-1.959,-1.966,-1.972,-1.975,-1.974,-1.97,-1.962,-1.952,-1.938,-1.924,-1.908,-1.892,-1.878,-1.864,-1.851,-1.84,-1.83,-1.819,-1.808,-1.796,-1.783,-1.768,-1.75,-1.731,-1.71,-1.689,-1.667,-1.646,-1.626,-1.607,-1.59,-1.574,-1.558,-1.542,-1.525,-1.507,-1.485,-1.461,-1.434,-1.404,-1.372,-1.339,-1.305,-1.272,-1.241,-1.213,-1.189,-1.17,-1.154,-1.142,-1.133,-1.126,-1.121,-1.116,-1.11,-1.103,-1.095,-1.086,-1.076,-1.066,-1.055,-1.045,-1.036,-1.028,-1.022,-1.016,-1.011,-1.007,-1.002,-0.995,-0.988,-0.979,-0.969,-0.958,-0.946,-0.935,-0.926,-0.918,-0.914,-0.912,-0.914,-0.92,-0.928,-0.938,-0.95,-0.962,-0.973,-0.983,-0.991,-0.998,-1.003,-1.006,-1.009,-1.012,-1.016,-1.021,-1.029,-1.038,-1.049,-1.062,-1.075,-1.088,-1.101,-1.112,-1.122,-1.129,-1.134,-1.138,-1.142,-1.145,-1.148,-1.153,-1.16,-1.169,-1.18,-1.192,-1.205,-1.219,-1.231,-1.242,-1.251,-1.256,-1.259,-1.258,-1.254,-1.249,-1.242,-1.235,-1.228,-1.223,-1.218,-1.214,-1.212,-1.21,-1.208,-1.205,-1.2,-1.192,-1.183,-1.17,-1.156,-1.139,-1.121,-1.102,-1.084,-1.066,-1.049,-1.034,-1.02,-1.007,-0.994,-0.981,-0.968,-0.953,-0.938,-0.921,-0.903,-0.885,-0.868,-0.852,-0.838,-0.828,-0.821,-0.818,-0.82,-0.825,-0.834,-0.845,-0.857,-0.869,-0.881,-0.892,-0.902,-0.911,-0.918,-0.925,-0.932,-0.939,-0.948,-0.958,-0.97,-0.983,-0.997,-1.012,-1.025,-1.037,-1.046,-1.053,-1.056,-1.055,-1.051,-1.045,-1.037,-1.028,-1.019,-1.011,-1.005,-1.001,-0.999,-0.998,-0.999,-1.001,-1.002,-1.004,-1.004,-1.004,-1.003,-1.001,-0.999,-0.998,-0.998,-1,-1.004,-1.011,-1.021,-1.032,-1.044,-1.057,-1.069,-1.079,-1.087,-1.092,-1.094,-1.093,-1.09,-1.084,-1.077,-1.07,-1.062,-1.055,-1.049,-1.043,-1.038,-1.033,-1.026,-1.018,-1.008,-0.996,-0.981,-0.963,-0.943,-0.921,-0.9,-0.878,-0.858,-0.84,-0.825,-0.813,-0.803,-0.796,-0.791,-0.787,-0.784,-0.78,-0.776,-0.771,-0.764,-0.758,-0.751,-0.745,-0.74,-0.738,-0.738,-0.74,-0.746,-0.754,-0.764,-0.775,-0.787,-0.798,-0.808,-0.816,-0.823,-0.828,-0.832,-0.835,-0.839,-0.843,-0.849,-0.857,-0.868,-0.881,-0.895,-0.911,-0.928,-0.944,-0.959,-0.973,-0.985,-0.995,-1.004,-1.011,-1.018,-1.025,-1.032,-1.041,-1.052,-1.065,-1.079,-1.094,-1.11,-1.125,-1.139,-1.151,-1.16,-1.166,-1.17,-1.172,-1.172,-1.171,-1.17,-1.17,-1.171,-1.173,-1.177,-1.182,-1.188,-1.194,-1.199,-1.202,-1.203,-1.201,-1.197,-1.191,-1.182,-1.173,-1.163,-1.153,-1.145,-1.139,-1.135,-1.133,-1.133,-1.133,-1.134,-1.135,-1.134,-1.131,-1.126,-1.118,-1.108,-1.095,-1.081,-1.066,-1.051,-1.036,-1.022,-1.008,-0.994,-0.98,-0.966,-0.949,-0.931,-0.909,-0.885,-0.857,-0.826,-0.793,-0.758,-0.723,-0.689,-0.656,-0.626,-0.599,-0.576,-0.556,-0.539,-0.524,-0.511,-0.498,-0.485,-0.471,-0.456,-0.439,-0.421,-0.403,-0.383,-0.364,-0.345,-0.326,-0.308,-0.291,-0.274,-0.257,-0.239,-0.22,-0.2,-0.177,-0.153,-0.128,-0.103,-0.078,-0.055,-0.036,-0.02,-0.009,-0.005,-0.006,-0.014,-0.027,-0.046,-0.069,-0.095,-0.124,-0.156,-0.188,-0.222,-0.258,-0.295,-0.334,-0.377,-0.422,-0.471,-0.523,-0.579,-0.637,-0.697,-0.758,-0.818,-0.876,-0.932,-0.985,-1.034,-1.078,-1.119,-1.157,-1.191,-1.223,-1.253,-1.281,-1.308,-1.333,-1.356,-1.377,-1.395,-1.41,-1.42,-1.427,-1.429,-1.427,-1.422,-1.415,-1.407,-1.398,-1.39,-1.383,-1.378,-1.375,-1.375,-1.375,-1.377,-1.378,-1.379,-1.377,-1.373,-1.366,-1.357,-1.344,-1.33,-1.314,-1.298,-1.281,-1.265,-1.25,-1.236,-1.223,-1.21,-1.197,-1.183,-1.168,-1.15,-1.13,-1.107,-1.081,-1.053,-1.022,-0.989,-0.954,-0.918,-0.88,-0.839,-0.795,-0.746,-0.692,-0.631,-0.56,-0.48,-0.389,-0.286,-0.171,-0.046,0.09,0.235,0.388,0.546,0.707,0.869,1.03,1.187,1.338,1.481,1.612,1.73,1.831,1.913,1.971,2.002,2.003,1.971,1.902,1.793,1.643,1.451,1.218,0.945,0.634,0.289,-0.082,-0.477,-0.888,-1.307,-1.728,-2.143,-2.544,-2.927,-3.283,-3.609,-3.9,-4.151,-4.36,-4.525,-4.644,-4.717,-4.743,-4.723,-4.661,-4.557,-4.417,-4.245,-4.044,-3.823,-3.585,-3.338,-3.087,-2.839,-2.598,-2.368,-2.153,-1.956,-1.779,-1.621,-1.484,-1.366,-1.267,-1.184,-1.117,-1.064,-1.023,-0.993,-0.974,-0.962,-0.958,-0.959,-0.965,-0.974,-0.983,-0.993,-1,-1.003,-1.001,-0.994,-0.981,-0.961,-0.936,-0.905,-0.871,-0.834,-0.796,-0.758,-0.721,-0.685,-0.652,-0.621,-0.593,-0.566,-0.54,-0.515,-0.491,-0.466,-0.442,-0.418,-0.394,-0.372,-0.351,-0.332,-0.315,-0.3,-0.288,-0.277,-0.266,-0.256,-0.244,-0.229,-0.211,-0.189,-0.163,-0.133,-0.099,-0.063,-0.024,0.013,0.052,0.088,0.123,0.154,0.182,0.206,0.228,0.247,0.264,0.279,0.293,0.306,0.318,0.328,0.336,0.342,0.345,0.346,0.343,0.338,0.33,0.322,0.312,0.304,0.297,0.293,0.292,0.295,0.302,0.312,0.324,0.339,0.354,0.369,0.382,0.394,0.403,0.409,0.413,0.414,0.414,0.412,0.41,0.408,0.406,0.405,0.404,0.402,0.4,0.396,0.39,0.382,0.372,0.359,0.345,0.329,0.313,0.298,0.284,0.271,0.261,0.254,0.249,0.246,0.244,0.243,0.242,0.239,0.236,0.231,0.224,0.216,0.208,0.2,0.193,0.188,0.185,0.185,0.187,0.191,0.197,0.204,0.211,0.217,0.221,0.223,0.223,0.221,0.217,0.213,0.208,0.203,0.201,0.199,0.2,0.204,0.208,0.215,0.221,0.227,0.232,0.236,0.237,0.235,0.232,0.226,0.218,0.21,0.2,0.191,0.181,0.171,0.16,0.148,0.134,0.117,0.096,0.071,0.041,0.006,-0.032,-0.076,-0.122,-0.171,-0.221,-0.27,-0.319,-0.366,-0.411,-0.454,-0.496,-0.536,-0.576,-0.616,-0.656,-0.698,-0.74,-0.784,-0.828,-0.873,-0.916,-0.959,-0.999,-1.037,-1.072,-1.104,-1.135,-1.163,-1.19,-1.218,-1.245,-1.274,-1.304,-1.335,-1.367,-1.4,-1.433,-1.465,-1.495,-1.522,-1.547,-1.568,-1.585,-1.6,-1.613,-1.624,-1.633,-1.643,-1.652,-1.661,-1.67,-1.68,-1.688,-1.695,-1.701,-1.703,-1.703,-1.701,-1.695,-1.688,-1.679,-1.669,-1.66,-1.652,-1.647,-1.643,-1.642,-1.643,-1.646,-1.649,-1.652,-1.654,-1.653,-1.65,-1.643,-1.634,-1.621,-1.606,-1.589,-1.572,-1.556,-1.54,-1.526,-1.513,-1.502,-1.493,-1.485,-1.477,-1.469,-1.461,-1.451,-1.441,-1.43,-1.419,-1.408,-1.399,-1.392,-1.387,-1.385,-1.387,-1.391,-1.398,-1.406,-1.414,-1.423,-1.43,-1.436,-1.439,-1.439,-1.438,-1.435,-1.431,-1.427,-1.424,-1.423,-1.423,-1.427,-1.432,-1.44,-1.449,-1.46,-1.47,-1.48,-1.488,-1.496,-1.502,-1.506,-1.51,-1.513,-1.516,-1.52,-1.524,-1.529,-1.535,-1.541,-1.546,-1.549,-1.551,-1.549,-1.544,-1.534,-1.521,-1.504,-1.485,-1.463,-1.441,-1.418,-1.397,-1.377,-1.359,-1.343,-1.329,-1.317,-1.305,-1.293,-1.281,-1.267,-1.252,-1.235,-1.216,-1.196,-1.176,-1.156,-1.137,-1.118,-1.101,-1.086,-1.071,-1.057,-1.043,-1.028,-1.011,-0.991,-0.97,-0.945,-0.918,-0.89,-0.86,-0.831,-0.802,-0.776,-0.753,-0.733,-0.717,-0.705,-0.696,-0.689,-0.683,-0.678,-0.673,-0.667,-0.66,-0.652,-0.642,-0.631,-0.62,-0.609,-0.598,-0.587,-0.578,-0.569,-0.56,-0.551,-0.541,-0.529,-0.515,-0.498,-0.48,-0.459,-0.436,-0.413,-0.39,-0.368,-0.349,-0.333,-0.321,-0.313,-0.309,-0.309,-0.311,-0.316,-0.322,-0.328,-0.334,-0.339,-0.343,-0.346,-0.349,-0.353,-0.357,-0.363,-0.37,-0.38,-0.391,-0.404,-0.417,-0.431,-0.445,-0.457,-0.467,-0.475,-0.481,-0.485,-0.486,-0.487,-0.488,-0.489,-0.491,-0.495,-0.501,-0.508,-0.517,-0.525,-0.534,-0.541,-0.546,-0.548,-0.547,-0.544,-0.537,-0.528,-0.518,-0.508,-0.498,-0.49,-0.483,-0.478,-0.476,-0.476,-0.477,-0.479,-0.481,-0.481,-0.481,-0.479,-0.476,-0.471,-0.465,-0.458,-0.452,-0.447,-0.442,-0.44,-0.438,-0.438,-0.439,-0.439,-0.439,-0.438,-0.435,-0.43,-0.424,-0.416,-0.408,-0.4,-0.393,-0.388,-0.386,-0.387,-0.392,-0.4,-0.412,-0.426,-0.442,-0.458,-0.474,-0.489,-0.503,-0.515,-0.525,-0.533,-0.541,-0.547,-0.554,-0.561,-0.569,-0.577,-0.586,-0.594,-0.601,-0.606,-0.609,-0.608,-0.604,-0.597,-0.587,-0.574,-0.559,-0.544,-0.529,-0.516,-0.505,-0.497,-0.492,-0.49,-0.491,-0.494,-0.498,-0.503,-0.507,-0.511,-0.514,-0.516,-0.518,-0.519,-0.521,-0.523,-0.527,-0.532,-0.539,-0.547,-0.555,-0.563,-0.569,-0.573,-0.574,-0.571,-0.563,-0.552,-0.536,-0.517,-0.496,-0.474,-0.451,-0.43,-0.411,-0.393,-0.379,-0.367,-0.357,-0.349,-0.342,-0.335,-0.328,-0.321,-0.314,-0.307,-0.3,-0.293,-0.287,-0.282,-0.279,-0.277,-0.276,-0.276,-0.275,-0.273,-0.269,-0.263,-0.253,-0.241,-0.225,-0.206,-0.185,-0.164,-0.142,-0.122,-0.104,-0.089,-0.078,-0.07,-0.065,-0.063,-0.063,-0.064,-0.066,-0.067,-0.068,-0.068,-0.068,-0.068,-0.069,-0.072,-0.076,-0.083,-0.094,-0.107,-0.124,-0.143,-0.163,-0.184,-0.205,-0.225,-0.244,-0.261,-0.276,-0.29,-0.303,-0.316,-0.329,-0.343,-0.359,-0.377,-0.396,-0.417,-0.438,-0.46,-0.48,-0.499,-0.515,-0.528,-0.538,-0.545,-0.549,-0.552,-0.553,-0.554,-0.556,-0.559,-0.562,-0.568,-0.574,-0.581,-0.587,-0.593,-0.598,-0.601,-0.601,-0.6,-0.596,-0.592,-0.587,-0.581,-0.577,-0.574,-0.573,-0.574,-0.577,-0.58,-0.584,-0.587,-0.589,-0.589,-0.586,-0.581,-0.572,-0.561,-0.547,-0.533,-0.518,-0.503,-0.49,-0.477,-0.465,-0.455,-0.445,-0.434,-0.423,-0.409,-0.393,-0.375,-0.353,-0.33,-0.304,-0.278,-0.251,-0.226,-0.204,-0.184,-0.168,-0.156,-0.147,-0.142,-0.139,-0.138,-0.139,-0.139,-0.14,-0.14,-0.14,-0.139,-0.139,-0.139,-0.14,-0.142,-0.145,-0.149,-0.153,-0.157,-0.161,-0.162,-0.161,-0.157,-0.149,-0.139,-0.126,-0.11,-0.094,-0.078,-0.063,-0.051,-0.042,-0.036,-0.036,-0.039,-0.046,-0.057,-0.069,-0.084,-0.099,-0.115,-0.131,-0.148,-0.164,-0.181,-0.2,-0.22,-0.242,-0.266,-0.292,-0.32,-0.35,-0.379,-0.408,-0.435,-0.459,-0.48,-0.496,-0.509,-0.517,-0.522,-0.523,-0.522,-0.52,-0.516,-0.511,-0.506,-0.5,-0.492,-0.484,-0.472,-0.459,-0.441,-0.421,-0.396,-0.369,-0.339,-0.308,-0.276,-0.245,-0.216,-0.188,-0.164,-0.144,-0.126,-0.112,-0.099,-0.089,-0.079,-0.07,-0.061,-0.052,-0.043,-0.035,-0.027,-0.022,-0.02,-0.021,-0.025,-0.034,-0.047,-0.064,-0.083,-0.105,-0.129,-0.152,-0.176,-0.2,-0.222,-0.244,-0.266,-0.287,-0.309,-0.331,-0.355,-0.379,-0.405,-0.431,-0.456,-0.48,-0.502,-0.521,-0.535,-0.545,-0.55,-0.55,-0.546,-0.539,-0.529,-0.517,-0.505,-0.493,-0.483,-0.473,-0.466,-0.459,-0.453,-0.448,-0.443,-0.437,-0.43,-0.423,-0.415,-0.408,-0.402,-0.397,-0.395,-0.397,-0.403,-0.412,-0.426,-0.443,-0.462,-0.482,-0.503,-0.524,-0.543,-0.56,-0.574,-0.586,-0.595,-0.602,-0.607,-0.61,-0.612,-0.613,-0.612,-0.608,-0.601,-0.589,-0.571,-0.546,-0.512,-0.469,-0.415,-0.35,-0.274,-0.189,-0.093,0.01,0.122,0.241,0.366,0.495,0.629,0.765,0.904,1.043,1.182,1.318,1.45,1.573,1.685,1.782,1.86,1.914,1.942,1.938,1.9,1.825,1.712,1.559,1.368,1.139,0.874,0.578,0.252,-0.096,-0.464,-0.845,-1.234,-1.624,-2.009,-2.383,-2.74,-3.073,-3.377,-3.645,-3.874,-4.06,-4.199,-4.289,-4.33,-4.322,-4.267,-4.168,-4.028,-3.854,-3.65,-3.423,-3.179,-2.924,-2.664,-2.405,-2.15,-1.904,-1.67,-1.45,-1.247,-1.062,-0.896,-0.748,-0.621,-0.513,-0.424,-0.354,-0.301,-0.265,-0.244,-0.235,-0.236,-0.245,-0.259,-0.275,-0.291,-0.305,-0.315,-0.319,-0.317,-0.309,-0.295,-0.275,-0.251,-0.223,-0.194,-0.164,-0.133,-0.103,-0.074,-0.045,-0.016,0.011,0.039,0.067,0.096,0.124,0.152,0.179,0.205,0.228,0.248,0.265,0.279,0.291,0.299,0.306,0.312,0.319,0.326,0.334,0.345,0.358,0.373,0.389,0.407,0.424,0.442,0.458,0.472,0.485,0.495,0.504,0.512,0.519,0.526,0.533,0.541,0.551,0.561,0.572,0.583,0.593,0.602,0.608,0.612,0.612,0.609,0.602,0.593,0.583,0.571,0.56,0.55,0.541,0.534,0.529,0.525,0.523,0.522,0.52,0.518,0.514,0.507,0.499,0.489,0.478,0.466,0.454,0.443,0.434,0.426,0.42,0.416,0.413,0.411,0.41,0.407,0.403,0.398,0.39,0.382,0.371,0.361,0.351,0.342,0.334,0.33,0.329,0.331,0.335,0.343,0.351,0.361,0.371,0.38,0.389,0.396,0.403,0.409,0.415,0.422,0.431,0.442,0.455,0.471,0.489,0.509,0.53,0.552,0.572,0.592,0.609,0.624,0.636,0.646,0.654,0.662,0.67,0.679,0.69,0.703,0.719,0.737,0.757,0.778,0.801,0.823,0.844,0.863,0.881,0.896,0.908,0.919,0.929,0.937,0.944,0.952,0.958,0.964,0.969,0.972,0.972,0.969,0.961,0.949,0.93,0.906,0.877,0.843,0.805,0.763,0.719,0.674,0.627,0.581,0.534,0.486,0.437,0.387,0.335,0.28,0.223,0.162,0.099,0.034,-0.032,-0.099,-0.166,-0.231,-0.294,-0.353,-0.41,-0.464,-0.515,-0.564,-0.611,-0.658,-0.705,-0.752,-0.8,-0.849,-0.898,-0.946,-0.994,-1.039,-1.083,-1.123,-1.16,-1.195,-1.226,-1.255,-1.282,-1.309,-1.335,-1.362,-1.389,-1.418,-1.447,-1.476,-1.504,-1.531,-1.555,-1.577,-1.594,-1.608,-1.619,-1.626,-1.63,-1.632,-1.634,-1.635,-1.636,-1.639,-1.643,-1.647,-1.652,-1.657,-1.661,-1.663,-1.663,-1.66,-1.655,-1.646,-1.635,-1.622,-1.607,-1.592,-1.577,-1.561,-1.546,-1.532,-1.517,-1.502,-1.485,-1.467,-1.446,-1.423,-1.397,-1.368,-1.337,-1.305,-1.272,-1.24,-1.21,-1.182,-1.156,-1.134,-1.114,-1.096,-1.08,-1.064,-1.048,-1.03,-1.011,-0.99,-0.966,-0.94,-0.913,-0.885,-0.857,-0.829,-0.803,-0.779,-0.756,-0.735,-0.716,-0.698,-0.681,-0.665,-0.648,-0.631,-0.615,-0.599,-0.584,-0.571,-0.561,-0.554,-0.551,-0.552,-0.557,-0.567,-0.579,-0.594,-0.609,-0.625,-0.639,-0.65,-0.659,-0.665,-0.667,-0.667,-0.665,-0.661,-0.657,-0.653,-0.65,-0.648,-0.648,-0.647,-0.648,-0.648,-0.647,-0.644,-0.639,-0.633,-0.624,-0.613,-0.602,-0.59,-0.579,-0.57,-0.562,-0.556,-0.552,-0.55,-0.55,-0.549,-0.549,-0.547,-0.543,-0.536,-0.527,-0.515,-0.502,-0.487,-0.471,-0.456,-0.442,-0.43,-0.42,-0.411,-0.405,-0.399,-0.395,-0.39,-0.386,-0.38,-0.373,-0.365,-0.357,-0.348,-0.34,-0.332,-0.327,-0.324,-0.322,-0.323,-0.326,-0.33,-0.333,-0.336,-0.336,-0.335,-0.329,-0.321,-0.309,-0.294,-0.278,-0.26,-0.242,-0.225,-0.21,-0.196,-0.185,-0.176,-0.169,-0.163,-0.158,-0.152,-0.146,-0.138,-0.129,-0.119,-0.107,-0.096,-0.085,-0.074,-0.066,-0.059,-0.054,-0.052,-0.05,-0.05,-0.05,-0.049,-0.046,-0.042,-0.035,-0.027,-0.017,-0.007,0.003,0.012,0.019,0.023,0.024,0.02,0.013,0.003,-0.008,-0.022,-0.037,-0.052,-0.065,-0.077,-0.087,-0.096,-0.103,-0.109,-0.115,-0.121,-0.127,-0.134,-0.142,-0.151,-0.159,-0.167,-0.173,-0.178,-0.18,-0.179,-0.176,-0.17,-0.162,-0.154,-0.145,-0.137,-0.131,-0.127,-0.125,-0.125,-0.127,-0.131,-0.135,-0.138,-0.14,-0.141,-0.139,-0.135,-0.129,-0.122,-0.115,-0.108,-0.102,-0.098,-0.097,-0.099,-0.105,-0.113,-0.123,-0.135,-0.147,-0.16,-0.172,-0.183,-0.194,-0.204,-0.213,-0.223,-0.234,-0.245,-0.258,-0.273,-0.288,-0.305,-0.321,-0.337,-0.351,-0.362,-0.37,-0.375,-0.375,-0.373,-0.368,-0.36,-0.352,-0.343,-0.335,-0.328,-0.323,-0.319,-0.316,-0.314,-0.312,-0.309,-0.304,-0.297,-0.288,-0.276,-0.263,-0.247,-0.231,-0.216,-0.201,-0.188,-0.178,-0.17,-0.165,-0.162,-0.161,-0.162,-0.163,-0.164,-0.164,-0.164,-0.162,-0.16,-0.158,-0.157,-0.156,-0.157,-0.16,-0.164,-0.171,-0.179,-0.187,-0.195,-0.202,-0.207,-0.21,-0.209,-0.205,-0.198,-0.188,-0.176,-0.163,-0.15,-0.137,-0.126,-0.115,-0.106,-0.098,-0.091,-0.083,-0.075,-0.065,-0.053,-0.039,-0.023,-0.005,0.014,0.034,0.053,0.072,0.088,0.102,0.114,0.123,0.13,0.134,0.138,0.142,0.145,0.149,0.154,0.16,0.166,0.172,0.177,0.181,0.183,0.183,0.181,0.176,0.169,0.161,0.153,0.145,0.138,0.132,0.129,0.127,0.127,0.128,0.13,0.131,0.13,0.127,0.121,0.111,0.099,0.084,0.067,0.049,0.03,0.012,-0.004,-0.018,-0.031,-0.041,-0.05,-0.058,-0.066,-0.074,-0.083,-0.093,-0.105,-0.119,-0.134,-0.149,-0.165,-0.181,-0.195,-0.207,-0.218,-0.226,-0.233,-0.238,-0.242,-0.246,-0.25,-0.255,-0.26,-0.265,-0.271,-0.276,-0.281,-0.283,-0.283,-0.28,-0.273,-0.264,-0.252,-0.238,-0.223,-0.208,-0.194,-0.182,-0.172,-0.164,-0.159,-0.156,-0.154,-0.153,-0.152,-0.149,-0.145,-0.139,-0.13,-0.119,-0.106,-0.092,-0.078,-0.063,-0.05,-0.037,-0.026,-0.016,-0.007,0.001,0.01,0.02,0.033,0.047,0.063,0.081,0.101,0.121,0.141,0.161,0.178,0.194,0.206,0.216,0.224,0.231,0.236,0.241,0.247,0.254,0.264,0.276,0.29,0.305,0.322,0.339,0.355,0.369,0.381,0.391,0.397,0.401,0.403,0.402,0.401,0.398,0.396,0.393,0.391,0.388,0.384,0.379,0.373,0.364,0.352,0.337,0.32,0.3,0.278,0.256,0.234,0.214,0.195,0.179,0.166,0.156,0.149,0.144,0.14,0.137,0.134,0.131,0.127,0.122,0.116,0.11,0.104,0.1,0.097,0.097,0.099,0.104,0.112,0.122,0.133,0.144,0.155,0.165,0.174,0.181,0.185,0.188,0.19,0.191,0.192,0.194,0.196,0.2,0.204,0.208,0.212,0.215,0.215,0.213,0.206,0.196,0.182,0.163,0.141,0.117,0.09,0.063,0.037,0.011,-0.012,-0.034,-0.054,-0.073,-0.09,-0.107,-0.123,-0.139,-0.154,-0.169,-0.183,-0.196,-0.206,-0.213,-0.216,-0.214,-0.206,-0.194,-0.177,-0.155,-0.13,-0.103,-0.074,-0.046,-0.017,0.008,0.033,0.057,0.079,0.1,0.12,0.14,0.159,0.179,0.198,0.217,0.234,0.25,0.262,0.271,0.276,0.277,0.274,0.267,0.257,0.245,0.232,0.219,0.207,0.197,0.189,0.183,0.18,0.179,0.179,0.18,0.183,0.185,0.189,0.194,0.201,0.21,0.224,0.244,0.271,0.305,0.349,0.402,0.465,0.537,0.618,0.708,0.804,0.905,1.012,1.121,1.232,1.343,1.453,1.561,1.664,1.761,1.849,1.925,1.987,2.03,2.052,2.048,2.015,1.95,1.851,1.716,1.545,1.337,1.094,0.818,0.513,0.184,-0.165,-0.529,-0.901,-1.277,-1.649,-2.011,-2.359,-2.685,-2.986,-3.256,-3.491,-3.688,-3.842,-3.953,-4.018,-4.037,-4.01,-3.94,-3.828,-3.677,-3.494,-3.281,-3.046,-2.794,-2.53,-2.262,-1.993,-1.728,-1.472,-1.228,-0.998,-0.783,-0.586,-0.406,-0.244,-0.1,0.026,0.136,0.229,0.307,0.37,0.419,0.455,0.479,0.494,0.502,0.503,0.502,0.499,0.496,0.496,0.499,0.506,0.517,0.532,0.551,0.571,0.592,0.614,0.634,0.653,0.669,0.683,0.694,0.703,0.711,0.717,0.722,0.726,0.73,0.733,0.736,0.737,0.736,0.733,0.727,0.718,0.707,0.694,0.68,0.665,0.651,0.64,0.631,0.626,0.625,0.628,0.635,0.645,0.657,0.67,0.682,0.694,0.704,0.712,0.718,0.721,0.723,0.724,0.724,0.724,0.726,0.728,0.731,0.735,0.739,0.743,0.746,0.747,0.747,0.744,0.739,0.733,0.725,0.717,0.71,0.704,0.7,0.698,0.699,0.701,0.706,0.711,0.717,0.722,0.726,0.728,0.728,0.726,0.723,0.718,0.714,0.711,0.709,0.709,0.712,0.718,0.727,0.738,0.75,0.764,0.777,0.791,0.803,0.815,0.826,0.837,0.848,0.86,0.873,0.887,0.904,0.923,0.944,0.966,0.988,1.01,1.031,1.049,1.065,1.078,1.088,1.095,1.101,1.106,1.11,1.116,1.123,1.133,1.145,1.16,1.176,1.194,1.213,1.232,1.249,1.266,1.28,1.293,1.303,1.313,1.322,1.331,1.34,1.35,1.36,1.372,1.384,1.396,1.406,1.415,1.42,1.422,1.42,1.414,1.404,1.39,1.374,1.355,1.335,1.314,1.294,1.274,1.254,1.234,1.214,1.192,1.169,1.142,1.113,1.08,1.043,1.004,0.961,0.917,0.871,0.824,0.778,0.732,0.686,0.641,0.596,0.55,0.502,0.453,0.4,0.344,0.285,0.223,0.158,0.092,0.025,-0.041,-0.106,-0.169,-0.23,-0.287,-0.342,-0.393,-0.443,-0.49,-0.537,-0.582,-0.628,-0.673,-0.717,-0.761,-0.803,-0.843,-0.88,-0.914,-0.944,-0.97,-0.992,-1.011,-1.027,-1.042,-1.056,-1.069,-1.083,-1.098,-1.114,-1.13,-1.146,-1.161,-1.175,-1.187,-1.196,-1.202,-1.204,-1.203,-1.199,-1.193,-1.187,-1.179,-1.172,-1.166,-1.161,-1.157,-1.153,-1.149,-1.145,-1.138,-1.129,-1.118,-1.102,-1.084,-1.063,-1.04,-1.015,-0.99,-0.966,-0.944,-0.924,-0.907,-0.893,-0.881,-0.871,-0.863,-0.856,-0.848,-0.84,-0.831,-0.822,-0.811,-0.8,-0.79,-0.78,-0.771,-0.763,-0.757,-0.753,-0.749,-0.746,-0.742,-0.737,-0.73,-0.72,-0.708,-0.693,-0.676,-0.658,-0.638,-0.62,-0.602,-0.587,-0.574,-0.565,-0.559,-0.556,-0.556,-0.557,-0.559,-0.561,-0.562,-0.562,-0.561,-0.558,-0.555,-0.551,-0.548,-0.546,-0.545,-0.547,-0.55,-0.555,-0.562,-0.57,-0.577,-0.584,-0.589,-0.593,-0.594,-0.593,-0.59,-0.586,-0.581,-0.577,-0.574,-0.572,-0.572,-0.574,-0.577,-0.582,-0.586,-0.59,-0.592,-0.591,-0.588,-0.583,-0.574,-0.564,-0.552,-0.54,-0.528,-0.517,-0.508,-0.501,-0.496,-0.494,-0.493,-0.492,-0.492,-0.492,-0.491,-0.488,-0.484,-0.479,-0.473,-0.467,-0.461,-0.457,-0.454,-0.452,-0.453,-0.455,-0.458,-0.462,-0.465,-0.466,-0.465,-0.461,-0.454,-0.444,-0.432,-0.417,-0.401,-0.385,-0.368,-0.353,-0.34,-0.328,-0.317,-0.307,-0.298,-0.289,-0.278,-0.267,-0.253,-0.237,-0.219,-0.2,-0.181,-0.161,-0.142,-0.124,-0.109,-0.096,-0.085,-0.076,-0.068,-0.062,-0.055,-0.047,-0.039,-0.029,-0.017,-0.004,0.008,0.022,0.036,0.049,0.06,0.069,0.076,0.082,0.087,0.091,0.096,0.102,0.11,0.12,0.133,0.147,0.163,0.18,0.197,0.212,0.226,0.237,0.244,0.249,0.25,0.249,0.246,0.242,0.239,0.235,0.233,0.233,0.234,0.237,0.24,0.244,0.248,0.25,0.252,0.252,0.25,0.247,0.244,0.241,0.238,0.236,0.236,0.238,0.242,0.247,0.253,0.259,0.264,0.267,0.268,0.267,0.263,0.257,0.249,0.24,0.231,0.222,0.214,0.207,0.203,0.2,0.199,0.199,0.198,0.197,0.194,0.188,0.181,0.171,0.159,0.145,0.13,0.116,0.103,0.091,0.081,0.074,0.069,0.065,0.063,0.061,0.058,0.054,0.049,0.041,0.031,0.02,0.007,-0.005,-0.017,-0.028,-0.038,-0.045,-0.049,-0.051,-0.052,-0.051,-0.049,-0.048,-0.047,-0.047,-0.048,-0.05,-0.052,-0.054,-0.056,-0.055,-0.052,-0.046,-0.037,-0.025,-0.01,0.007,0.026,0.045,0.065,0.085,0.103,0.12,0.136,0.152,0.167,0.183,0.2,0.219,0.239,0.26,0.283,0.306,0.329,0.351,0.371,0.389,0.403,0.414,0.422,0.427,0.43,0.432,0.433,0.435,0.438,0.443,0.449,0.457,0.465,0.473,0.481,0.487,0.49,0.491,0.489,0.484,0.477,0.468,0.459,0.449,0.439,0.431,0.424,0.419,0.414,0.41,0.406,0.402,0.396,0.388,0.378,0.367,0.354,0.341,0.328,0.317,0.308,0.302,0.299,0.3,0.304,0.311,0.32,0.33,0.34,0.348,0.355,0.359,0.36,0.358,0.354,0.348,0.34,0.332,0.323,0.314,0.304,0.294,0.284,0.273,0.26,0.245,0.227,0.208,0.186,0.163,0.14,0.116,0.094,0.074,0.058,0.046,0.037,0.033,0.033,0.035,0.04,0.046,0.052,0.058,0.063,0.067,0.069,0.071,0.073,0.075,0.078,0.083,0.09,0.099,0.111,0.124,0.138,0.153,0.167,0.18,0.191,0.2,0.207,0.212,0.217,0.221,0.226,0.233,0.241,0.253,0.267,0.283,0.302,0.323,0.345,0.366,0.387,0.408,0.427,0.445,0.462,0.478,0.495,0.512,0.53,0.549,0.569,0.59,0.611,0.631,0.649,0.664,0.675,0.681,0.683,0.679,0.671,0.658,0.642,0.623,0.604,0.583,0.563,0.544,0.526,0.508,0.49,0.472,0.453,0.433,0.41,0.385,0.358,0.33,0.3,0.269,0.239,0.211,0.184,0.159,0.136,0.116,0.098,0.082,0.066,0.052,0.037,0.023,0.009,-0.004,-0.017,-0.029,-0.038,-0.045,-0.048,-0.048,-0.044,-0.037,-0.027,-0.016,-0.004,0.007,0.017,0.025,0.031,0.033,0.032,0.03,0.025,0.02,0.014,0.009,0.005,0.003,0.002,0.002,0.004,0.005,0.006,0.006,0.005,0.004,0.002,0,0,0.001,0.005,0.015,0.029,0.049,0.076,0.109,0.148,0.193,0.243,0.298,0.356,0.419,0.485,0.555,0.629,0.708,0.791,0.88,0.974,1.074,1.178,1.285,1.395,1.505,1.614,1.717,1.814,1.9,1.974,2.034,2.076,2.099,2.101,2.08,2.036,1.966,1.87,1.747,1.596,1.416,1.209,0.974,0.713,0.428,0.122,-0.201,-0.537,-0.88,-1.224,-1.562,-1.89,-2.199,-2.484,-2.741,-2.965,-3.153,-3.302,-3.411,-3.481,-3.511,-3.504,-3.461,-3.384,-3.277,-3.142,-2.982,-2.802,-2.605,-2.394,-2.173,-1.948,-1.72,-1.496,-1.278,-1.07,-0.876,-0.697,-0.536,-0.393,-0.27,-0.165,-0.077,-0.005,0.053,0.1,0.138,0.168,0.194,0.215,0.234,0.251,0.267,0.283,0.297,0.311,0.325,0.34,0.355,0.371,0.389,0.409,0.431,0.455,0.481,0.507,0.534,0.559,0.582,0.601,0.616,0.624,0.627,0.623,0.614,0.599,0.581,0.56,0.538,0.517,0.497,0.48,0.466,0.456,0.45,0.448,0.448,0.451,0.457,0.464,0.474,0.485,0.499,0.514,0.533,0.554,0.579,0.605,0.634,0.665,0.696,0.726,0.754,0.779,0.8,0.817,0.829,0.836,0.84,0.84,0.837,0.833,0.829,0.826,0.823,0.823,0.823,0.825,0.828,0.831,0.834,0.836,0.837,0.836,0.835,0.833,0.831,0.83,0.83,0.832,0.837,0.843,0.852,0.862,0.873,0.884,0.894,0.902,0.907,0.909,0.909,0.905,0.899,0.892,0.884,0.877,0.871,0.867,0.866,0.866,0.87,0.875,0.882,0.89,0.898,0.907,0.915,0.923,0.931,0.94,0.95,0.962,0.976,0.993,1.013,1.036,1.06,1.086,1.112,1.137,1.16,1.181,1.198,1.212,1.221,1.228,1.231,1.231,1.23,1.228,1.225,1.222,1.219,1.215,1.211,1.205,1.198,1.188,1.176,1.162,1.146,1.128,1.109,1.09,1.072,1.055,1.041,1.029,1.019,1.012,1.006,1.001,0.995,0.988,0.979,0.966,0.95,0.93,0.907,0.881,0.851,0.82,0.788,0.755,0.722,0.688,0.653,0.618,0.581,0.541,0.499,0.454,0.405,0.352,0.297,0.239,0.179,0.118,0.057,-0.001,-0.06,-0.116,-0.17,-0.223,-0.274,-0.324,-0.373,-0.423,-0.474,-0.525,-0.577,-0.629,-0.681,-0.732,-0.78,-0.826,-0.868,-0.907,-0.941,-0.97,-0.997,-1.02,-1.04,-1.059,-1.077,-1.095,-1.113,-1.131,-1.149,-1.167,-1.183,-1.197,-1.209,-1.218,-1.224,-1.227,-1.227,-1.225,-1.221,-1.216,-1.211,-1.206,-1.203,-1.199,-1.197,-1.194,-1.191,-1.186,-1.179,-1.171,-1.159,-1.144,-1.128,-1.109,-1.09,-1.071,-1.053,-1.037,-1.024,-1.014,-1.007,-1.003,-1.002,-1.002,-1.004,-1.004,-1.004,-1.002,-0.998,-0.991,-0.983,-0.972,-0.961,-0.949,-0.937,-0.925,-0.914,-0.903,-0.893,-0.883,-0.872,-0.861,-0.847,-0.833,-0.816,-0.798,-0.78,-0.761,-0.743,-0.727,-0.713,-0.703,-0.696,-0.694,-0.695,-0.699,-0.706,-0.713,-0.722,-0.73,-0.737,-0.742,-0.746,-0.749,-0.752,-0.754,-0.757,-0.762,-0.768,-0.775,-0.785,-0.796,-0.808,-0.819,-0.83,-0.839,-0.845,-0.848,-0.848,-0.846,-0.84,-0.833,-0.825,-0.817,-0.81,-0.804,-0.799,-0.796,-0.795,-0.794,-0.794,-0.793,-0.791,-0.788,-0.782,-0.774,-0.765,-0.753,-0.741,-0.728,-0.716,-0.704,-0.693,-0.683,-0.674,-0.665,-0.656,-0.645,-0.633,-0.619,-0.602,-0.582,-0.559,-0.534,-0.508,-0.481,-0.454,-0.428,-0.403,-0.381,-0.361,-0.343,-0.326,-0.31,-0.295,-0.278,-0.26,-0.241,-0.22,-0.198,-0.175,-0.151,-0.128,-0.106,-0.086,-0.069,-0.054,-0.042,-0.033,-0.025,-0.017,-0.011,-0.003,0.004,0.015,0.026,0.039,0.053,0.067,0.081,0.093,0.104,0.112,0.118,0.122,0.124,0.125,0.126,0.127,0.128,0.131,0.136,0.142,0.149,0.156,0.164,0.17,0.175,0.179,0.18,0.179,0.176,0.173,0.17,0.168,0.167,0.169,0.175,0.183,0.195,0.21,0.227,0.245,0.263,0.281,0.298,0.313,0.326,0.338,0.348,0.357,0.366,0.375,0.383,0.393,0.402,0.411,0.42,0.427,0.433,0.436,0.436,0.432,0.427,0.418,0.408,0.397,0.387,0.377,0.37,0.365,0.362,0.362,0.364,0.368,0.372,0.375,0.377,0.377,0.374,0.369,0.361,0.351,0.339,0.327,0.316,0.304,0.295,0.287,0.28,0.275,0.271,0.266,0.261,0.256,0.248,0.239,0.228,0.217,0.204,0.191,0.179,0.169,0.16,0.152,0.146,0.141,0.137,0.132,0.126,0.118,0.107,0.093,0.075,0.055,0.031,0.006,-0.019,-0.045,-0.071,-0.095,-0.118,-0.139,-0.158,-0.177,-0.194,-0.212,-0.23,-0.249,-0.268,-0.288,-0.308,-0.328,-0.345,-0.36,-0.372,-0.38,-0.383,-0.381,-0.375,-0.365,-0.352,-0.337,-0.32,-0.304,-0.288,-0.274,-0.261,-0.249,-0.239,-0.229,-0.219,-0.208,-0.196,-0.183,-0.169,-0.154,-0.138,-0.122,-0.107,-0.092,-0.079,-0.067,-0.057,-0.048,-0.04,-0.031,-0.021,-0.009,0.004,0.021,0.041,0.063,0.087,0.112,0.137,0.16,0.181,0.199,0.213,0.223,0.229,0.232,0.232,0.231,0.229,0.227,0.226,0.226,0.227,0.23,0.233,0.238,0.242,0.246,0.249,0.252,0.255,0.257,0.261,0.266,0.274,0.285,0.299,0.317,0.339,0.364,0.391,0.42,0.45,0.479,0.506,0.532,0.555,0.575,0.593,0.608,0.622,0.634,0.646,0.657,0.667,0.677,0.686,0.693,0.697,0.698,0.696,0.689,0.677,0.662,0.642,0.618,0.593,0.565,0.537,0.509,0.481,0.453,0.427,0.4,0.373,0.345,0.316,0.284,0.249,0.212,0.172,0.13,0.086,0.041,-0.002,-0.046,-0.087,-0.126,-0.163,-0.198,-0.23,-0.26,-0.288,-0.316,-0.343,-0.369,-0.395,-0.419,-0.441,-0.46,-0.476,-0.486,-0.491,-0.49,-0.483,-0.47,-0.451,-0.428,-0.401,-0.372,-0.342,-0.311,-0.281,-0.253,-0.226,-0.2,-0.176,-0.153,-0.13,-0.108,-0.087,-0.065,-0.044,-0.024,-0.005,0.01,0.024,0.034,0.042,0.046,0.047,0.047,0.046,0.045,0.046,0.049,0.056,0.068,0.084,0.105,0.131,0.161,0.195,0.233,0.273,0.317,0.363,0.413,0.466,0.523,0.586,0.653,0.727,0.806,0.891,0.981,1.075,1.171,1.268,1.365,1.459,1.548,1.63,1.705,1.77,1.825,1.867,1.896,1.909,1.907,1.886,1.845,1.782,1.695,1.583,1.443,1.276,1.081,0.858,0.608,0.335,0.041,-0.27,-0.593,-0.923,-1.255,-1.583,-1.901,-2.205,-2.489,-2.751,-2.985,-3.19,-3.362,-3.501,-3.606,-3.674,-3.708,-3.706,-3.67,-3.601,-3.501,-3.373,-3.22,-3.044,-2.851,-2.645,-2.43,-2.212,-1.994,-1.78,-1.574,-1.379,-1.198,-1.03,-0.878,-0.74,-0.618,-0.508,-0.412,-0.326,-0.251,-0.185,-0.127,-0.077,-0.034,0.002,0.034,0.061,0.083,0.103,0.121,0.139,0.156,0.175,0.197,0.221,0.248,0.277,0.309,0.341,0.373,0.404,0.433,0.458,0.48,0.497,0.511,0.522,0.529,0.536,0.541,0.548,0.555,0.564,0.576,0.59,0.606,0.623,0.642,0.661,0.68,0.699,0.717,0.736,0.755,0.775,0.796,0.819,0.844,0.871,0.9,0.929,0.959,0.987,1.013,1.036,1.054,1.067,1.075,1.078,1.075,1.069,1.059,1.047,1.034,1.02,1.007,0.994,0.983,0.971,0.96,0.948,0.935,0.921,0.904,0.886,0.866,0.844,0.821,0.798,0.776,0.754,0.734,0.715,0.697,0.681,0.664,0.648,0.631,0.612,0.592,0.57,0.546,0.522,0.497,0.473,0.452,0.434,0.42,0.41,0.406,0.406,0.411,0.42,0.431,0.444,0.457,0.471,0.483,0.495,0.504,0.513,0.52,0.527,0.534,0.541,0.548,0.555,0.563,0.57,0.577,0.582,0.587,0.589,0.59,0.59,0.589,0.588,0.589,0.591,0.597,0.606,0.62,0.637,0.659,0.685,0.713,0.743,0.773,0.803,0.832,0.858,0.882,0.904,0.924,0.942,0.958,0.974,0.99,1.005,1.021,1.036,1.05,1.063,1.074,1.081,1.084,1.083,1.078,1.068,1.054,1.038,1.019,0.998,0.978,0.957,0.937,0.918,0.899,0.88,0.861,0.84,0.817,0.791,0.762,0.73,0.694,0.655,0.614,0.571,0.527,0.483,0.439,0.396,0.353,0.31,0.267,0.222,0.175,0.125,0.072,0.016,-0.043,-0.106,-0.172,-0.238,-0.305,-0.371,-0.436,-0.497,-0.556,-0.611,-0.662,-0.711,-0.758,-0.803,-0.846,-0.89,-0.932,-0.974,-1.015,-1.055,-1.093,-1.129,-1.161,-1.189,-1.213,-1.233,-1.249,-1.262,-1.273,-1.281,-1.289,-1.296,-1.304,-1.312,-1.32,-1.329,-1.337,-1.344,-1.35,-1.354,-1.355,-1.354,-1.351,-1.347,-1.341,-1.335,-1.33,-1.326,-1.324,-1.325,-1.327,-1.33,-1.335,-1.34,-1.344,-1.346,-1.346,-1.342,-1.335,-1.324,-1.311,-1.295,-1.277,-1.258,-1.24,-1.221,-1.204,-1.188,-1.173,-1.159,-1.146,-1.132,-1.117,-1.102,-1.085,-1.068,-1.05,-1.032,-1.015,-0.999,-0.985,-0.974,-0.966,-0.961,-0.958,-0.956,-0.956,-0.955,-0.954,-0.95,-0.944,-0.935,-0.923,-0.909,-0.893,-0.877,-0.862,-0.847,-0.835,-0.824,-0.817,-0.811,-0.808,-0.806,-0.804,-0.802,-0.8,-0.796,-0.79,-0.783,-0.776,-0.768,-0.761,-0.754,-0.75,-0.747,-0.747,-0.748,-0.751,-0.754,-0.756,-0.757,-0.755,-0.75,-0.741,-0.729,-0.713,-0.694,-0.672,-0.649,-0.626,-0.602,-0.58,-0.559,-0.539,-0.521,-0.504,-0.487,-0.47,-0.452,-0.434,-0.416,-0.396,-0.377,-0.358,-0.34,-0.324,-0.31,-0.3,-0.293,-0.288,-0.286,-0.286,-0.287,-0.288,-0.288,-0.287,-0.284,-0.278,-0.271,-0.262,-0.252,-0.243,-0.235,-0.228,-0.224,-0.222,-0.223,-0.226,-0.23,-0.235,-0.241,-0.245,-0.248,-0.249,-0.248,-0.246,-0.243,-0.24,-0.237,-0.235,-0.236,-0.239,-0.245,-0.254,-0.265,-0.277,-0.29,-0.303,-0.315,-0.326,-0.335,-0.342,-0.347,-0.351,-0.354,-0.357,-0.36,-0.363,-0.367,-0.371,-0.376,-0.379,-0.381,-0.381,-0.377,-0.37,-0.358,-0.343,-0.324,-0.302,-0.278,-0.254,-0.23,-0.208,-0.189,-0.172,-0.16,-0.152,-0.147,-0.145,-0.145,-0.148,-0.152,-0.156,-0.162,-0.169,-0.176,-0.186,-0.197,-0.21,-0.226,-0.245,-0.265,-0.287,-0.31,-0.332,-0.352,-0.37,-0.384,-0.393,-0.398,-0.398,-0.393,-0.385,-0.373,-0.36,-0.345,-0.331,-0.317,-0.304,-0.292,-0.281,-0.271,-0.261,-0.251,-0.241,-0.23,-0.218,-0.206,-0.195,-0.184,-0.176,-0.17,-0.167,-0.168,-0.172,-0.179,-0.19,-0.202,-0.216,-0.229,-0.242,-0.254,-0.264,-0.272,-0.278,-0.282,-0.287,-0.291,-0.296,-0.303,-0.311,-0.322,-0.334,-0.348,-0.362,-0.377,-0.392,-0.405,-0.416,-0.426,-0.435,-0.443,-0.45,-0.457,-0.465,-0.476,-0.488,-0.502,-0.518,-0.536,-0.554,-0.571,-0.588,-0.602,-0.612,-0.619,