# OpenSignals Text File Format. Version 1
# {"98:D3:B1:FD:3D:AC": {"position": 0, "device": "bitalino_rev", "device name": "98:D3:B1:FD:3D:AC", "device connection": "BTH98:D3:B1:FD:3D:AC", "sampling rate": 1000, "resolution": [4, 1, 1, 1, 1, 10, 10], "firmware version": 1281, "comments": "", "keywords": "", "mode": 0, "sync interval": 2, "date": "2023-3-12", "time": "9:29:42.849", "channels": [2, 3], "sensor": ["ECGBIT", "EDABITREV"], "label": ["A2", "A3"], "column": ["nSeq", "I1", "I2", "O1", "O2", "A2", "A3"], "special": [{}, {}], "digital IO": [0, 0, 1, 1]}}
# EndOfHeader
0	0	0	0	0	505	601	
1	0	0	0	0	507	601	
2	0	0	0	0	508	601	
3	0	0	0	0	508	601	
4	0	0	0	0	507	601	
5	0	0	0	0	507	601	
6	0	0	0	0	507	601	
7	0	0	0	0	507	601	
8	0	0	0	0	506	601	
9	0	0	0	0	507	601	
10	0	0	0	0	507	601	
11	0	0	0	0	508	601	
12	0	0	0	0	509	601	
13	0	0	0	0	511	601	
14	0	0	0	0	512	601	
15	0	0	0	0	513	601	
0	0	0	0	0	514	601	
1	0	0	0	0	515	601	
2	0	0	0	0	515	601	
3	0	0	0	0	515	601	
4	0	0	0	0	515	601	
5	0	0	0	0	515	601	
6	0	0	0	0	515	601	
7	0	0	0	0	515	601	
8	0	0	0	0	515	601	
9	0	0	0	0	515	601	
10	0	0	0	0	515	601	
11	0	0	0	0	514	601	
12	0	0	0	0	513	601	
13	0	0	0	0	513	601	
14	0	0	0	0	514	601	
15	0	0	0	0	515	601	
0	0	0	0	0	515	601	
1	0	0	0	0	515	601	
2	0	0	0	0	515	601	
3	0	0	0	0	516	601	
4	0	0	0	0	516	601	
5	0	0	0	0	518	601	
6	0	0	0	0	518	601	
7	0	0	0	0	516	601	
8	0	0	0	0	516	601	
9	0	0	0	0	516	601	
10	0	0	0	0	517	601	
11	0	0	0	0	517	601	
12	0	0	0	0	516	601	
13	0	0	0	0	515	601	
14	0	0	0	0	515	601	
15	0	0	0	0	516	601	
0	0	0	0	0	516	601	
1	0	0	0	0	516	601	
2	0	0	0	0	516	601	
3	0	0	0	0	517	601	
4	0	0	0	0	516	601	
5	0	0	0	0	516	601	
6	0	0	0	0	515	601	
7	0	0	0	0	515	601	
8	0	0	0	0	513	602	
9	0	0	0	0	513	601	
10	0	0	0	0	512	601	
11	0	0	0	0	512	601	
12	0	0	0	0	510	601	
13	0	0	0	0	509	601	
14	0	0	0	0	510	601	
15	0	0	0	0	511	602	
0	0	0	0	0	511	601	
1	0	0	0	0	511	601	
2	0	0	0	0	510	602	
3	0	0	0	0	509	601	
4	0	0	0	0	508	602	
5	0	0	0	0	508	601	
6	0	0	0	0	507	601	
7	0	0	0	0	507	601	
8	0	0	0	0	507	601	
9	0	0	0	0	506	602	
10	0	0	0	0	505	602	
11	0	0	0	0	504	602	
12	0	0	0	0	504	601	
13	0	0	0	0	505	601	
14	0	0	0	0	505	601	
15	0	0	0	0	507	601	
0	0	0	0	0	509	602	
1	0	0	0	0	510	602	
2	0	0	0	0	511	602	
3	0	0	0	0	512	601	
4	0	0	0	0	512	602	
5	0	0	0	0	512	602	
6	0	0	0	0	512	602	
7	0	0	0	0	512	602	
8	0	0	0	0	513	602	
9	0	0	0	0	513	602	
10	0	0	0	0	513	602	
11	0	0	0	0	513	602	
12	0	0	0	0	513	602	
13	0	0	0	0	515	602	
14	0	0	0	0	514	602	
15	0	0	0	0	515	602	
0	0	0	0	0	514	602	
1	0	0	0	0	514	602	
2	0	0	0	0	515	602	
3	0	0	0	0	515	602	
4	0	0	0	0	514	602	
5	0	0	0	0	513	602	
6	0	0	0	0	512	602	
7	0	0	0	0	512	602	
8	0	0	0	0	512	602	
9	0	0	0	0	511	602	
10	0	0	0	0	512	602	
11	0	0	0	0	511	601	
12	0	0	0	0	511	602	
13	0	0	0	0	510	602	
14	0	0	0	0	510	602	
15	0	0	0	0	508	602	
0	0	0	0	0	508	602	
1	0	0	0	0	509	602	
2	0	0	0	0	508	602	
3	0	0	0	0	509	602	
4	0	0	0	0	508	602	
5	0	0	0	0	508	602	
6	0	0	0	0	507	602	
7	0	0	0	0	507	602	
8	0	0	0	0	507	602	
9	0	0	0	0	507	602	
10	0	0	0	0	507	602	
11	0	0	0	0	506	602	
12	0	0	0	0	506	601	
13	0	0	0	0	505	602	
14	0	0	0	0	504	602	
15	0	0	0	0	504	602	
0	0	0	0	0	503	602	
1	0	0	0	0	504	602	
2	0	0	0	0	505	602	
3	0	0	0	0	505	602	
4	0	0	0	0	505	602	
5	0	0	0	0	505	602	
6	0	0	0	0	505	602	
7	0	0	0	0	505	602	
8	0	0	0	0	507	602	
9	0	0	0	0	509	602	
10	0	0	0	0	510	602	
11	0	0	0	0	511	602	
12	0	0	0	0	512	602	
13	0	0	0	0	513	602	
14	0	0	0	0	512	602	
15	0	0	0	0	512	602	
0	0	0	0	0	512	602	
1	0	0	0	0	513	602	
2	0	0	0	0	513	602	
3	0	0	0	0	515	602	
4	0	0	0	0	515	602	
5	0	0	0	0	516	602	
6	0	0	0	0	517	602	
7	0	0	0	0	518	602	
8	0	0	0	0	518	602	
9	0	0	0	0	518	602	
10	0	0	0	0	518	602	
11	0	0	0	0	519	602	
12	0	0	0	0	519	602	
13	0	0	0	0	519	602	
14	0	0	0	0	520	602	
15	0	0	0	0	519	602	
0	0	0	0	0	519	603	
1	0	0	0	0	519	602	
2	0	0	0	0	518	602	
3	0	0	0	0	518	602	
4	0	0	0	0	516	602	
5	0	0	0	0	514	602	
6	0	0	0	0	513	602	
7	0	0	0	0	513	602	
8	0	0	0	0	514	603	
9	0	0	0	0	514	602	
10	0	0	0	0	513	603	
11	0	0	0	0	512	602	
12	0	0	0	0	511	602	
13	0	0	0	0	509	603	
14	0	0	0	0	507	603	
15	0	0	0	0	507	603	
0	0	0	0	0	507	603	
1	0	0	0	0	507	603	
2	0	0	0	0	508	602	
3	0	0	0	0	509	602	
4	0	0	0	0	510	603	
5	0	0	0	0	511	602	
6	0	0	0	0	511	602	
7	0	0	0	0	513	602	
8	0	0	0	0	518	603	
9	0	0	0	0	522	603	
10	0	0	0	0	526	603	
11	0	0	0	0	529	602	
12	0	0	0	0	532	603	
13	0	0	0	0	534	602	
14	0	0	0	0	537	603	
15	0	0	0	0	542	603	
0	0	0	0	0	547	603	
1	0	0	0	0	553	603	
2	0	0	0	0	557	602	
3	0	0	0	0	563	603	
4	0	0	0	0	568	603	
5	0	0	0	0	574	603	
6	0	0	0	0	579	603	
7	0	0	0	0	584	603	
8	0	0	0	0	588	603	
9	0	0	0	0	592	603	
10	0	0	0	0	595	603	
11	0	0	0	0	598	603	
12	0	0	0	0	599	603	
13	0	0	0	0	599	603	
14	0	0	0	0	597	603	
15	0	0	0	0	592	603	
0	0	0	0	0	587	603	
1	0	0	0	0	577	603	
2	0	0	0	0	568	603	
3	0	0	0	0	556	603	
4	0	0	0	0	540	603	
5	0	0	0	0	524	603	
6	0	0	0	0	505	602	
7	0	0	0	0	486	603	
8	0	0	0	0	468	603	
9	0	0	0	0	449	603	
10	0	0	0	0	432	603	
11	0	0	0	0	415	603	
12	0	0	0	0	400	603	
13	0	0	0	0	387	603	
14	0	0	0	0	376	603	
15	0	0	0	0	369	603	
0	0	0	0	0	364	603	
1	0	0	0	0	363	603	
2	0	0	0	0	365	603	
3	0	0	0	0	368	603	
4	0	0	0	0	372	603	
5	0	0	0	0	378	603	
6	0	0	0	0	384	603	
7	0	0	0	0	391	603	
8	0	0	0	0	398	603	
9	0	0	0	0	405	603	
10	0	0	0	0	412	603	
11	0	0	0	0	418	603	
12	0	0	0	0	424	603	
13	0	0	0	0	431	603	
14	0	0	0	0	436	603	
15	0	0	0	0	442	603	
0	0	0	0	0	448	603	
1	0	0	0	0	453	603	
2	0	0	0	0	458	603	
3	0	0	0	0	464	603	
4	0	0	0	0	469	603	
5	0	0	0	0	475	603	
6	0	0	0	0	479	603	
7	0	0	0	0	483	603	
8	0	0	0	0	487	603	
9	0	0	0	0	491	603	
10	0	0	0	0	495	603	
11	0	0	0	0	498	603	
12	0	0	0	0	502	603	
13	0	0	0	0	505	603	
14	0	0	0	0	507	603	
15	0	0	0	0	509	603	
0	0	0	0	0	511	603	
1	0	0	0	0	512	603	
2	0	0	0	0	514	603	
3	0	0	0	0	514	603	
4	0	0	0	0	516	603	
5	0	0	0	0	516	603	
6	0	0	0	0	517	603	
7	0	0	0	0	518	603	
8	0	0	0	0	519	603	
9	0	0	0	0	520	603	
10	0	0	0	0	521	603	
11	0	0	0	0	523	603	
12	0	0	0	0	524	603	
13	0	0	0	0	524	603	
14	0	0	0	0	524	603	
15	0	0	0	0	524	603	
0	0	0	0	0	526	603	
1	0	0	0	0	527	603	
2	0	0	0	0	527	603	
3	0	0	0	0	528	603	
4	0	0	0	0	527	603	
5	0	0	0	0	527	603	
6	0	0	0	0	527	603	
7	0	0	0	0	527	603	
8	0	0	0	0	527	603	
9	0	0	0	0	527	603	
10	0	0	0	0	526	603	
11	0	0	0	0	526	603	
12	0	0	0	0	528	603	
13	0	0	0	0	529	603	
14	0	0	0	0	530	603	
15	0	0	0	0	530	603	
0	0	0	0	0	529	603	
1	0	0	0	0	529	603	
2	0	0	0	0	529	603	
3	0	0	0	0	527	603	
4	0	0	0	0	527	603	
5	0	0	0	0	525	603	
6	0	0	0	0	524	603	
7	0	0	0	0	524	603	
8	0	0	0	0	524	603	
9	0	0	0	0	524	603	
10	0	0	0	0	525	603	
11	0	0	0	0	526	603	
12	0	0	0	0	526	603	
13	0	0	0	0	526	603	
14	0	0	0	0	525	603	
15	0	0	0	0	525	603	
0	0	0	0	0	525	603	
1	0	0	0	0	526	604	
2	0	0	0	0	526	603	
3	0	0	0	0	526	604	
4	0	0	0	0	526	603	
5	0	0	0	0	526	603	
6	0	0	0	0	526	604	
7	0	0	0	0	527	603	
8	0	0	0	0	528	603	
9	0	0	0	0	529	603	
10	0	0	0	0	529	603	
11	0	0	0	0	531	603	
12	0	0	0	0	532	603	
13	0	0	0	0	533	604	
14	0	0	0	0	533	603	
15	0	0	0	0	534	603	
0	0	0	0	0	535	604	
1	0	0	0	0	535	604	
2	0	0	0	0	535	604	
3	0	0	0	0	535	604	
4	0	0	0	0	534	603	
5	0	0	0	0	534	604	
6	0	0	0	0	534	604	
7	0	0	0	0	533	603	
8	0	0	0	0	533	604	
9	0	0	0	0	532	604	
10	0	0	0	0	532	604	
11	0	0	0	0	532	604	
12	0	0	0	0	534	604	
13	0	0	0	0	535	604	
14	0	0	0	0	535	604	
15	0	0	0	0	535	604	
0	0	0	0	0	536	604	
1	0	0	0	0	536	604	
2	0	0	0	0	536	604	
3	0	0	0	0	537	604	
4	0	0	0	0	536	604	
5	0	0	0	0	536	604	
6	0	0	0	0	535	604	
7	0	0	0	0	534	604	
8	0	0	0	0	535	604	
9	0	0	0	0	536	604	
10	0	0	0	0	537	604	
11	0	0	0	0	538	604	
12	0	0	0	0	539	604	
13	0	0	0	0	540	604	
14	0	0	0	0	541	604	
15	0	0	0	0	541	604	
0	0	0	0	0	541	604	
1	0	0	0	0	541	604	
2	0	0	0	0	542	604	
3	0	0	0	0	543	604	
4	0	0	0	0	543	604	
5	0	0	0	0	544	604	
6	0	0	0	0	544	604	
7	0	0	0	0	544	604	
8	0	0	0	0	544	604	
9	0	0	0	0	544	604	
10	0	0	0	0	544	604	
11	0	0	0	0	544	604	
12	0	0	0	0	542	603	
13	0	0	0	0	542	604	
14	0	0	0	0	542	604	
15	0	0	0	0	543	604	
0	0	0	0	0	543	604	
1	0	0	0	0	543	604	
2	0	0	0	0	542	604	
3	0	0	0	0	543	604	
4	0	0	0	0	543	604	
5	0	0	0	0	543	604	
6	0	0	0	0	544	604	
7	0	0	0	0	545	604	
8	0	0	0	0	544	604	
9	0	0	0	0	544	604	
10	0	0	0	0	544	604	
11	0	0	0	0	545	604	
12	0	0	0	0	547	604	
13	0	0	0	0	547	604	
14	0	0	0	0	548	604	
15	0	0	0	0	549	604	
0	0	0	0	0	550	604	
1	0	0	0	0	551	604	
2	0	0	0	0	552	604	
3	0	0	0	0	553	604	
4	0	0	0	0	553	604	
5	0	0	0	0	554	604	
6	0	0	0	0	555	604	
7	0	0	0	0	556	604	
8	0	0	0	0	556	604	
9	0	0	0	0	556	604	
10	0	0	0	0	556	604	
11	0	0	0	0	555	604	
12	0	0	0	0	554	604	
13	0	0	0	0	553	604	
14	0	0	0	0	553	604	
15	0	0	0	0	553	604	
0	0	0	0	0	553	604	
1	0	0	0	0	552	604	
2	0	0	0	0	553	604	
3	0	0	0	0	553	604	
4	0	0	0	0	553	604	
5	0	0	0	0	552	604	
6	0	0	0	0	553	604	
7	0	0	0	0	553	604	
8	0	0	0	0	553	604	
9	0	0	0	0	553	604	
10	0	0	0	0	552	604	
11	0	0	0	0	551	604	
12	0	0	0	0	551	604	
13	0	0	0	0	550	604	
14	0	0	0	0	548	604	
15	0	0	0	0	547	604	
0	0	0	0	0	545	604	
1	0	0	0	0	545	604	
2	0	0	0	0	545	604	
3	0	0	0	0	544	604	
4	0	0	0	0	544	604	
5	0	0	0	0	542	604	
6	0	0	0	0	541	604	
7	0	0	0	0	540	604	
8	0	0	0	0	539	604	
9	0	0	0	0	537	604	
10	0	0	0	0	535	604	
11	0	0	0	0	533	604	
12	0	0	0	0	531	604	
13	0	0	0	0	528	604	
14	0	0	0	0	528	604	
15	0	0	0	0	527	604	
0	0	0	0	0	524	604	
1	0	0	0	0	522	604	
2	0	0	0	0	519	604	
3	0	0	0	0	516	604	
4	0	0	0	0	514	604	
5	0	0	0	0	511	604	
6	0	0	0	0	509	604	
7	0	0	0	0	507	604	
8	0	0	0	0	504	604	
9	0	0	0	0	503	604	
10	0	0	0	0	501	604	
11	0	0	0	0	499	604	
12	0	0	0	0	496	604	
13	0	0	0	0	495	604	
14	0	0	0	0	493	604	
15	0	0	0	0	490	604	
0	0	0	0	0	488	604	
1	0	0	0	0	486	604	
2	0	0	0	0	486	604	
3	0	0	0	0	485	604	
4	0	0	0	0	483	604	
5	0	0	0	0	482	604	
6	0	0	0	0	480	604	
7	0	0	0	0	479	604	
8	0	0	0	0	479	605	
9	0	0	0	0	477	604	
10	0	0	0	0	475	604	
11	0	0	0	0	474	604	
12	0	0	0	0	472	604	
13	0	0	0	0	472	605	
14	0	0	0	0	471	604	
15	0	0	0	0	471	604	
0	0	0	0	0	471	604	
1	0	0	0	0	471	604	
2	0	0	0	0	471	604	
3	0	0	0	0	471	605	
4	0	0	0	0	469	605	
5	0	0	0	0	467	604	
6	0	0	0	0	466	604	
7	0	0	0	0	465	605	
8	0	0	0	0	465	604	
9	0	0	0	0	464	605	
10	0	0	0	0	463	604	
11	0	0	0	0	463	605	
12	0	0	0	0	464	605	
13	0	0	0	0	465	605	
14	0	0	0	0	465	605	
15	0	0	0	0	464	604	
0	0	0	0	0	464	605	
1	0	0	0	0	464	605	
2	0	0	0	0	465	605	
3	0	0	0	0	465	604	
4	0	0	0	0	465	605	
5	0	0	0	0	465	605	
6	0	0	0	0	465	605	
7	0	0	0	0	464	604	
8	0	0	0	0	465	605	
9	0	0	0	0	465	605	
10	0	0	0	0	465	605	
11	0	0	0	0	463	605	
12	0	0	0	0	462	605	
13	0	0	0	0	463	605	
14	0	0	0	0	463	605	
15	0	0	0	0	464	605	
0	0	0	0	0	465	605	
1	0	0	0	0	466	605	
2	0	0	0	0	468	605	
3	0	0	0	0	470	605	
4	0	0	0	0	471	605	
5	0	0	0	0	471	605	
6	0	0	0	0	470	605	
7	0	0	0	0	470	605	
8	0	0	0	0	470	605	
9	0	0	0	0	470	605	
10	0	0	0	0	468	605	
11	0	0	0	0	469	605	
12	0	0	0	0	469	605	
13	0	0	0	0	468	605	
14	0	0	0	0	468	605	
15	0	0	0	0	468	605	
0	0	0	0	0	467	605	
1	0	0	0	0	468	605	
2	0	0	0	0	469	605	
3	0	0	0	0	472	605	
4	0	0	0	0	472	605	
5	0	0	0	0	473	605	
6	0	0	0	0	474	605	
7	0	0	0	0	474	605	
8	0	0	0	0	476	605	
9	0	0	0	0	476	605	
10	0	0	0	0	476	605	
11	0	0	0	0	477	605	
12	0	0	0	0	478	605	
13	0	0	0	0	479	605	
14	0	0	0	0	480	605	
15	0	0	0	0	480	605	
0	0	0	0	0	480	605	
1	0	0	0	0	481	605	
2	0	0	0	0	481	605	
3	0	0	0	0	482	605	
4	0	0	0	0	484	605	
5	0	0	0	0	485	605	
6	0	0	0	0	485	605	
7	0	0	0	0	485	606	
8	0	0	0	0	486	605	
9	0	0	0	0	487	606	
10	0	0	0	0	487	605	
11	0	0	0	0	487	605	
12	0	0	0	0	487	606	
13	0	0	0	0	487	605	
14	0	0	0	0	486	606	
15	0	0	0	0	486	605	
0	0	0	0	0	487	606	
1	0	0	0	0	488	605	
2	0	0	0	0	487	606	
3	0	0	0	0	487	606	
4	0	0	0	0	487	606	
5	0	0	0	0	487	605	
6	0	0	0	0	487	606	
7	0	0	0	0	489	606	
8	0	0	0	0	489	605	
9	0	0	0	0	491	606	
10	0	0	0	0	492	606	
11	0	0	0	0	491	606	
12	0	0	0	0	490	606	
13	0	0	0	0	488	606	
14	0	0	0	0	489	606	
15	0	0	0	0	490	606	
0	0	0	0	0	490	606	
1	0	0	0	0	490	606	
2	0	0	0	0	490	606	
3	0	0	0	0	490	606	
4	0	0	0	0	490	606	
5	0	0	0	0	491	606	
6	0	0	0	0	491	606	
7	0	0	0	0	492	606	
8	0	0	0	0	493	606	
9	0	0	0	0	492	606	
10	0	0	0	0	493	606	
11	0	0	0	0	494	606	
12	0	0	0	0	495	606	
13	0	0	0	0	495	606	
14	0	0	0	0	495	606	
15	0	0	0	0	495	606	
0	0	0	0	0	494	606	
1	0	0	0	0	493	606	
2	0	0	0	0	493	606	
3	0	0	0	0	492	606	
4	0	0	0	0	491	606	
5	0	0	0	0	491	606	
6	0	0	0	0	492	606	
7	0	0	0	0	492	606	
8	0	0	0	0	494	606	
9	0	0	0	0	494	606	
10	0	0	0	0	495	606	
11	0	0	0	0	494	606	
12	0	0	0	0	495	606	
13	0	0	0	0	494	606	
14	0	0	0	0	495	606	
15	0	0	0	0	495	606	
0	0	0	0	0	496	606	
1	0	0	0	0	497	606	
2	0	0	0	0	497	606	
3	0	0	0	0	498	606	
4	0	0	0	0	499	606	
5	0	0	0	0	499	606	
6	0	0	0	0	500	606	
7	0	0	0	0	500	606	
8	0	0	0	0	499	606	
9	0	0	0	0	499	606	
10	0	0	0	0	498	606	
11	0	0	0	0	498	606	
12	0	0	0	0	498	606	
13	0	0	0	0	498	606	
14	0	0	0	0	499	606	
15	0	0	0	0	498	606	
0	0	0	0	0	497	607	
1	0	0	0	0	496	606	
2	0	0	0	0	497	606	
3	0	0	0	0	497	606	
4	0	0	0	0	498	606	
5	0	0	0	0	499	606	
6	0	0	0	0	498	606	
7	0	0	0	0	497	606	
8	0	0	0	0	496	606	
9	0	0	0	0	497	606	
10	0	0	0	0	497	607	
11	0	0	0	0	497	606	
12	0	0	0	0	496	606	
13	0	0	0	0	495	606	
14	0	0	0	0	494	606	
15	0	0	0	0	493	607	
0	0	0	0	0	493	606	
1	0	0	0	0	494	607	
2	0	0	0	0	494	607	
3	0	0	0	0	494	607	
4	0	0	0	0	495	606	
5	0	0	0	0	496	606	
6	0	0	0	0	496	607	
7	0	0	0	0	497	607	
8	0	0	0	0	498	607	
9	0	0	0	0	499	607	
10	0	0	0	0	499	606	
11	0	0	0	0	500	607	
12	0	0	0	0	501	606	
13	0	0	0	0	502	606	
14	0	0	0	0	503	607	
15	0	0	0	0	503	607	
0	0	0	0	0	503	607	
1	0	0	0	0	503	607	
2	0	0	0	0	504	607	
3	0	0	0	0	504	607	
4	0	0	0	0	504	607	
5	0	0	0	0	504	607	
6	0	0	0	0	504	607	
7	0	0	0	0	504	607	
8	0	0	0	0	504	607	
9	0	0	0	0	504	607	
10	0	0	0	0	506	607	
11	0	0	0	0	508	607	
12	0	0	0	0	509	607	
13	0	0	0	0	509	607	
14	0	0	0	0	510	607	
15	0	0	0	0	511	607	
0	0	0	0	0	511	607	
1	0	0	0	0	512	607	
2	0	0	0	0	513	607	
3	0	0	0	0	513	607	
4	0	0	0	0	512	607	
5	0	0	0	0	512	607	
6	0	0	0	0	511	607	
7	0	0	0	0	511	607	
8	0	0	0	0	511	607	
9	0	0	0	0	511	607	
10	0	0	0	0	511	607	
11	0	0	0	0	510	607	
12	0	0	0	0	510	607	
13	0	0	0	0	509	607	
14	0	0	0	0	509	607	
15	0	0	0	0	508	607	
0	0	0	0	0	508	607	
1	0	0	0	0	509	607	
2	0	0	0	0	510	607	
3	0	0	0	0	510	607	
4	0	0	0	0	511	607	
5	0	0	0	0	511	607	
6	0	0	0	0	511	607	
7	0	0	0	0	511	607	
8	0	0	0	0	511	607	
9	0	0	0	0	511	607	
10	0	0	0	0	510	607	
11	0	0	0	0	509	607	
12	0	0	0	0	509	607	
13	0	0	0	0	510	607	
14	0	0	0	0	510	607	
15	0	0	0	0	511	607	
0	0	0	0	0	511	607	
1	0	0	0	0	510	607	
2	0	0	0	0	510	607	
3	0	0	0	0	509	607	
4	0	0	0	0	508	607	
5	0	0	0	0	507	607	
6	0	0	0	0	508	607	
7	0	0	0	0	507	607	
8	0	0	0	0	505	607	
9	0	0	0	0	504	607	
10	0	0	0	0	505	607	
11	0	0	0	0	505	607	
12	0	0	0	0	505	608	
13	0	0	0	0	506	608	
14	0	0	0	0	507	607	
15	0	0	0	0	508	607	
0	0	0	0	0	510	607	
1	0	0	0	0	511	607	
2	0	0	0	0	512	608	
3	0	0	0	0	513	607	
4	0	0	0	0	514	608	
5	0	0	0	0	513	607	
6	0	0	0	0	512	608	
7	0	0	0	0	512	608	
8	0	0	0	0	512	608	
9	0	0	0	0	511	608	
10	0	0	0	0	511	608	
11	0	0	0	0	510	608	
12	0	0	0	0	509	608	
13	0	0	0	0	510	608	
14	0	0	0	0	510	608	
15	0	0	0	0	510	608	
0	0	0	0	0	510	608	
1	0	0	0	0	510	608	
2	0	0	0	0	509	608	
3	0	0	0	0	508	608	
4	0	0	0	0	507	608	
5	0	0	0	0	506	608	
6	0	0	0	0	505	608	
7	0	0	0	0	505	608	
8	0	0	0	0	505	608	
9	0	0	0	0	505	608	
10	0	0	0	0	505	608	
11	0	0	0	0	504	608	
12	0	0	0	0	504	608	
13	0	0	0	0	505	608	
14	0	0	0	0	505	608	
15	0	0	0	0	505	608	
0	0	0	0	0	505	608	
1	0	0	0	0	504	608	
2	0	0	0	0	504	608	
3	0	0	0	0	503	608	
4	0	0	0	0	503	608	
5	0	0	0	0	502	608	
6	0	0	0	0	502	608	
7	0	0	0	0	501	608	
8	0	0	0	0	502	608	
9	0	0	0	0	501	608	
10	0	0	0	0	502	608	
11	0	0	0	0	502	608	
12	0	0	0	0	500	608	
13	0	0	0	0	499	608	
14	0	0	0	0	499	608	
15	0	0	0	0	500	608	
0	0	0	0	0	501	608	
1	0	0	0	0	500	608	
2	0	0	0	0	501	608	
3	0	0	0	0	502	608	
4	0	0	0	0	502	608	
5	0	0	0	0	502	608	
6	0	0	0	0	503	608	
7	0	0	0	0	504	608	
8	0	0	0	0	505	608	
9	0	0	0	0	505	608	
10	0	0	0	0	507	608	
11	0	0	0	0	507	608	
12	0	0	0	0	506	608	
13	0	0	0	0	506	608	
14	0	0	0	0	505	608	
15	0	0	0	0	504	608	
0	0	0	0	0	502	608	
1	0	0	0	0	499	608	
2	0	0	0	0	498	608	
3	0	0	0	0	498	608	
4	0	0	0	0	499	608	
5	0	0	0	0	499	608	
6	0	0	0	0	499	608	
7	0	0	0	0	499	609	
8	0	0	0	0	499	609	
9	0	0	0	0	500	609	
10	0	0	0	0	500	609	
11	0	0	0	0	500	608	
12	0	0	0	0	501	609	
13	0	0	0	0	501	609	
14	0	0	0	0	501	609	
15	0	0	0	0	502	609	
0	0	0	0	0	503	609	
1	0	0	0	0	504	609	
2	0	0	0	0	504	609	
3	0	0	0	0	505	609	
4	0	0	0	0	506	609	
5	0	0	0	0	507	609	
6	0	0	0	0	507	609	
7	0	0	0	0	508	609	
8	0	0	0	0	508	609	
9	0	0	0	0	508	609	
10	0	0	0	0	507	609	
11	0	0	0	0	507	609	
12	0	0	0	0	507	609	
13	0	0	0	0	507	609	
14	0	0	0	0	506	609	
15	0	0	0	0	507	609	
0	0	0	0	0	508	609	
1	0	0	0	0	508	609	
2	0	0	0	0	509	609	
3	0	0	0	0	511	609	
4	0	0	0	0	512	609	
5	0	0	0	0	514	609	
6	0	0	0	0	514	609	
7	0	0	0	0	514	609	
8	0	0	0	0	513	609	
9	0	0	0	0	512	609	
10	0	0	0	0	512	609	
11	0	0	0	0	512	609	
12	0	0	0	0	512	609	
13	0	0	0	0	512	609	
14	0	0	0	0	512	609	
15	0	0	0	0	512	609	
0	0	0	0	0	512	609	
1	0	0	0	0	513	609	
2	0	0	0	0	514	609	
3	0	0	0	0	515	609	
4	0	0	0	0	515	609	
5	0	0	0	0	515	609	
6	0	0	0	0	515	609	
7	0	0	0	0	516	609	
8	0	0	0	0	516	609	
9	0	0	0	0	515	609	
10	0	0	0	0	515	609	
11	0	0	0	0	516	609	
12	0	0	0	0	517	609	
13	0	0	0	0	518	609	
14	0	0	0	0	518	609	
15	0	0	0	0	518	609	
0	0	0	0	0	519	609	
1	0	0	0	0	520	609	
2	0	0	0	0	519	609	
3	0	0	0	0	520	610	
4	0	0	0	0	519	610	
5	0	0	0	0	519	609	
6	0	0	0	0	519	610	
7	0	0	0	0	518	609	
8	0	0	0	0	518	610	
9	0	0	0	0	516	609	
10	0	0	0	0	516	610	
11	0	0	0	0	515	610	
12	0	0	0	0	514	610	
13	0	0	0	0	513	610	
14	0	0	0	0	513	610	
15	0	0	0	0	513	610	
0	0	0	0	0	512	610	
1	0	0	0	0	513	610	
2	0	0	0	0	514	610	
3	0	0	0	0	514	610	
4	0	0	0	0	513	610	
5	0	0	0	0	514	610	
6	0	0	0	0	513	610	
7	0	0	0	0	513	610	
8	0	0	0	0	513	610	
9	0	0	0	0	513	610	
10	0	0	0	0	513	610	
11	0	0	0	0	513	610	
12	0	0	0	0	513	610	
13	0	0	0	0	512	610	
14	0	0	0	0	512	610	
15	0	0	0	0	511	610	
0	0	0	0	0	510	610	
1	0	0	0	0	510	610	
2	0	0	0	0	510	610	
3	0	0	0	0	510	610	
4	0	0	0	0	510	610	
5	0	0	0	0	510	610	
6	0	0	0	0	511	610	
7	0	0	0	0	511	610	
8	0	0	0	0	510	610	
9	0	0	0	0	509	610	
10	0	0	0	0	509	610	
11	0	0	0	0	509	610	
12	0	0	0	0	509	610	
13	0	0	0	0	508	610	
14	0	0	0	0	507	611	
15	0	0	0	0	506	610	
0	0	0	0	0	506	610	
1	0	0	0	0	506	610	
2	0	0	0	0	506	610	
3	0	0	0	0	506	610	
4	0	0	0	0	506	610	
5	0	0	0	0	507	611	
6	0	0	0	0	508	610	
7	0	0	0	0	508	611	
8	0	0	0	0	508	611	
9	0	0	0	0	507	610	
10	0	0	0	0	507	611	
11	0	0	0	0	507	611	
12	0	0	0	0	505	611	
13	0	0	0	0	505	611	
14	0	0	0	0	505	611	
15	0	0	0	0	506	611	
0	0	0	0	0	506	611	
1	0	0	0	0	506	610	
2	0	0	0	0	506	611	
3	0	0	0	0	506	610	
4	0	0	0	0	507	611	
5	0	0	0	0	507	611	
6	0	0	0	0	506	611	
7	0	0	0	0	506	611	
8	0	0	0	0	506	611	
9	0	0	0	0	507	611	
10	0	0	0	0	508	611	
11	0	0	0	0	508	611	
12	0	0	0	0	508	611	
13	0	0	0	0	508	610	
14	0	0	0	0	508	611	
15	0	0	0	0	508	611	
0	0	0	0	0	508	611	
1	0	0	0	0	509	611	
2	0	0	0	0	509	611	
3	0	0	0	0	509	611	
4	0	0	0	0	511	611	
5	0	0	0	0	512	611	
6	0	0	0	0	513	611	
7	0	0	0	0	514	611	
8	0	0	0	0	515	611	
9	0	0	0	0	515	611	
10	0	0	0	0	515	611	
11	0	0	0	0	515	611	
12	0	0	0	0	515	611	
13	0	0	0	0	515	611	
14	0	0	0	0	515	611	
15	0	0	0	0	515	611	
0	0	0	0	0	515	611	
1	0	0	0	0	516	611	
2	0	0	0	0	517	611	
3	0	0	0	0	518	611	
4	0	0	0	0	518	611	
5	0	0	0	0	518	611	
6	0	0	0	0	518	611	
7	0	0	0	0	518	611	
8	0	0	0	0	519	611	
9	0	0	0	0	519	611	
10	0	0	0	0	519	611	
11	0	0	0	0	518	611	
12	0	0	0	0	518	611	
13	0	0	0	0	516	611	
14	0	0	0	0	516	611	
15	0	0	0	0	517	611	
0	0	0	0	0	516	611	
1	0	0	0	0	516	611	
2	0	0	0	0	516	611	
3	0	0	0	0	516	611	
4	0	0	0	0	516	611	
5	0	0	0	0	516	611	
6	0	0	0	0	516	611	
7	0	0	0	0	516	611	
8	0	0	0	0	517	611	
9	0	0	0	0	518	611	
10	0	0	0	0	518	611	
11	0	0	0	0	518	611	
12	0	0	0	0	518	611	
13	0	0	0	0	516	611	
14	0	0	0	0	515	611	
15	0	0	0	0	515	611	
0	0	0	0	0	514	612	
1	0	0	0	0	512	611	
2	0	0	0	0	512	611	
3	0	0	0	0	512	612	
4	0	0	0	0	512	611	
5	0	0	0	0	512	612	
6	0	0	0	0	512	612	
7	0	0	0	0	512	611	
8	0	0	0	0	513	612	
9	0	0	0	0	515	612	
10	0	0	0	0	517	611	
11	0	0	0	0	519	612	
12	0	0	0	0	520	611	
13	0	0	0	0	521	612	
14	0	0	0	0	521	611	
15	0	0	0	0	521	612	
0	0	0	0	0	520	612	
1	0	0	0	0	520	612	
2	0	0	0	0	520	612	
3	0	0	0	0	520	612	
4	0	0	0	0	520	612	
5	0	0	0	0	520	612	
6	0	0	0	0	521	612	
7	0	0	0	0	521	612	
8	0	0	0	0	523	612	
9	0	0	0	0	523	612	
10	0	0	0	0	523	612	
11	0	0	0	0	523	612	
12	0	0	0	0	522	612	
13	0	0	0	0	521	612	
14	0	0	0	0	520	612	
15	0	0	0	0	519	612	
0	0	0	0	0	518	612	
1	0	0	0	0	517	612	
2	0	0	0	0	515	612	
3	0	0	0	0	514	612	
4	0	0	0	0	513	612	
5	0	0	0	0	513	612	
6	0	0	0	0	513	612	
7	0	0	0	0	513	612	
8	0	0	0	0	514	612	
9	0	0	0	0	512	612	
10	0	0	0	0	512	612	
11	0	0	0	0	511	612	
12	0	0	0	0	509	612	
13	0	0	0	0	508	612	
14	0	0	0	0	505	612	
15	0	0	0	0	504	612	
0	0	0	0	0	504	612	
1	0	0	0	0	502	612	
2	0	0	0	0	502	612	
3	0	0	0	0	500	612	
4	0	0	0	0	499	612	
5	0	0	0	0	499	612	
6	0	0	0	0	499	612	
7	0	0	0	0	499	612	
8	0	0	0	0	499	612	
9	0	0	0	0	499	612	
10	0	0	0	0	499	612	
11	0	0	0	0	500	612	
12	0	0	0	0	501	613	
13	0	0	0	0	501	612	
14	0	0	0	0	502	613	
15	0	0	0	0	502	613	
0	0	0	0	0	502	612	
1	0	0	0	0	502	612	
2	0	0	0	0	502	612	
3	0	0	0	0	502	613	
4	0	0	0	0	503	612	
5	0	0	0	0	504	612	
6	0	0	0	0	505	613	
7	0	0	0	0	505	613	
8	0	0	0	0	505	613	
9	0	0	0	0	506	613	
10	0	0	0	0	506	613	
11	0	0	0	0	507	613	
12	0	0	0	0	508	613	
13	0	0	0	0	509	613	
14	0	0	0	0	509	613	
15	0	0	0	0	510	613	
0	0	0	0	0	510	613	
1	0	0	0	0	511	613	
2	0	0	0	0	510	613	
3	0	0	0	0	509	613	
4	0	0	0	0	509	613	
5	0	0	0	0	509	613	
6	0	0	0	0	510	613	
7	0	0	0	0	510	613	
8	0	0	0	0	510	613	
9	0	0	0	0	510	613	
10	0	0	0	0	511	613	
11	0	0	0	0	510	613	
12	0	0	0	0	511	613	
13	0	0	0	0	511	613	
14	0	0	0	0	512	613	
15	0	0	0	0	512	613	
0	0	0	0	0	512	613	
1	0	0	0	0	512	613	
2	0	0	0	0	510	613	
3	0	0	0	0	510	613	
4	0	0	0	0	510	613	
5	0	0	0	0	510	613	
6	0	0	0	0	510	613	
7	0	0	0	0	510	613	
8	0	0	0	0	509	613	
9	0	0	0	0	510	613	
10	0	0	0	0	511	613	
11	0	0	0	0	510	613	
12	0	0	0	0	510	613	
13	0	0	0	0	510	613	
14	0	0	0	0	511	613	
15	0	0	0	0	513	613	
0	0	0	0	0	515	613	
1	0	0	0	0	519	613	
2	0	0	0	0	522	613	
3	0	0	0	0	526	613	
4	0	0	0	0	531	613	
5	0	0	0	0	535	613	
6	0	0	0	0	539	614	
7	0	0	0	0	544	613	
8	0	0	0	0	550	613	
9	0	0	0	0	556	614	
10	0	0	0	0	563	614	
11	0	0	0	0	568	614	
12	0	0	0	0	574	613	
13	0	0	0	0	577	613	
14	0	0	0	0	582	614	
15	0	0	0	0	587	614	
0	0	0	0	0	591	614	
1	0	0	0	0	594	614	
2	0	0	0	0	597	614	
3	0	0	0	0	599	614	
4	0	0	0	0	600	614	
5	0	0	0	0	600	614	
6	0	0	0	0	599	614	
7	0	0	0	0	596	614	
8	0	0	0	0	591	614	
9	0	0	0	0	584	614	
10	0	0	0	0	575	614	
11	0	0	0	0	565	614	
12	0	0	0	0	552	614	
13	0	0	0	0	537	614	
14	0	0	0	0	520	614	
15	0	0	0	0	503	614	
0	0	0	0	0	486	614	
1	0	0	0	0	469	614	
2	0	0	0	0	452	614	
3	0	0	0	0	435	614	
4	0	0	0	0	420	614	
5	0	0	0	0	406	614	
6	0	0	0	0	393	614	
7	0	0	0	0	384	614	
8	0	0	0	0	375	614	
9	0	0	0	0	370	614	
10	0	0	0	0	368	614	
11	0	0	0	0	370	614	
12	0	0	0	0	373	614	
13	0	0	0	0	378	614	
14	0	0	0	0	384	614	
15	0	0	0	0	389	614	
0	0	0	0	0	394	614	
1	0	0	0	0	400	614	
2	0	0	0	0	408	614	
3	0	0	0	0	414	614	
4	0	0	0	0	419	614	
5	0	0	0	0	425	614	
6	0	0	0	0	431	614	
7	0	0	0	0	435	614	
8	0	0	0	0	441	614	
9	0	0	0	0	445	614	
10	0	0	0	0	449	614	
11	0	0	0	0	454	614	
12	0	0	0	0	459	614	
13	0	0	0	0	464	614	
14	0	0	0	0	470	614	
15	0	0	0	0	476	614	
0	0	0	0	0	480	614	
1	0	0	0	0	484	614	
2	0	0	0	0	487	614	
3	0	0	0	0	490	614	
4	0	0	0	0	492	614	
5	0	0	0	0	495	614	
6	0	0	0	0	497	614	
7	0	0	0	0	498	614	
8	0	0	0	0	499	614	
9	0	0	0	0	502	614	
10	0	0	0	0	504	614	
11	0	0	0	0	507	615	
12	0	0	0	0	509	614	
13	0	0	0	0	510	614	
14	0	0	0	0	510	615	
15	0	0	0	0	512	615	
0	0	0	0	0	512	614	
1	0	0	0	0	514	615	
2	0	0	0	0	515	614	
3	0	0	0	0	516	615	
4	0	0	0	0	516	615	
5	0	0	0	0	516	615	
6	0	0	0	0	518	615	
7	0	0	0	0	518	614	
8	0	0	0	0	519	614	
9	0	0	0	0	519	615	
10	0	0	0	0	519	615	
11	0	0	0	0	519	614	
12	0	0	0	0	519	614	
13	0	0	0	0	520	615	
14	0	0	0	0	520	615	
15	0	0	0	0	520	615	
0	0	0	0	0	521	615	
1	0	0	0	0	521	615	
2	0	0	0	0	523	615	
3	0	0	0	0	524	615	
4	0	0	0	0	524	615	
5	0	0	0	0	525	615	
6	0	0	0	0	526	615	
7	0	0	0	0	527	615	
8	0	0	0	0	527	615	
9	0	0	0	0	526	615	
10	0	0	0	0	527	615	
11	0	0	0	0	527	615	
12	0	0	0	0	528	615	
13	0	0	0	0	529	615	
14	0	0	0	0	529	615	
15	0	0	0	0	530	615	
0	0	0	0	0	530	615	
1	0	0	0	0	531	615	
2	0	0	0	0	532	615	
3	0	0	0	0	533	615	
4	0	0	0	0	534	615	
5	0	0	0	0	534	615	
6	0	0	0	0	536	615	
7	0	0	0	0	536	615	
8	0	0	0	0	536	615	
9	0	0	0	0	536	615	
10	0	0	0	0	536	615	
11	0	0	0	0	537	615	
12	0	0	0	0	537	615	
13	0	0	0	0	538	615	
14	0	0	0	0	539	615	
15	0	0	0	0	540	615	
0	0	0	0	0	540	615	
1	0	0	0	0	540	615	
2	0	0	0	0	540	615	
3	0	0	0	0	542	615	
4	0	0	0	0	542	615	
5	0	0	0	0	542	615	
6	0	0	0	0	542	615	
7	0	0	0	0	542	615	
8	0	0	0	0	542	615	
9	0	0	0	0	543	615	
10	0	0	0	0	543	615	
11	0	0	0	0	544	615	
12	0	0	0	0	544	615	
13	0	0	0	0	544	615	
14	0	0	0	0	544	615	
15	0	0	0	0	544	615	
0	0	0	0	0	545	615	
1	0	0	0	0	546	615	
2	0	0	0	0	546	615	
3	0	0	0	0	547	615	
4	0	0	0	0	547	615	
5	0	0	0	0	548	615	
6	0	0	0	0	548	615	
7	0	0	0	0	548	615	
8	0	0	0	0	547	615	
9	0	0	0	0	547	615	
10	0	0	0	0	545	615	
11	0	0	0	0	544	615	
12	0	0	0	0	543	615	
13	0	0	0	0	542	615	
14	0	0	0	0	540	615	
15	0	0	0	0	540	615	
0	0	0	0	0	540	615	
1	0	0	0	0	541	615	
2	0	0	0	0	542	615	
3	0	0	0	0	542	615	
4	0	0	0	0	542	615	
5	0	0	0	0	543	615	
6	0	0	0	0	543	615	
7	0	0	0	0	542	615	
8	0	0	0	0	541	615	
9	0	0	0	0	540	615	
10	0	0	0	0	540	615	
11	0	0	0	0	540	615	
12	0	0	0	0	540	615	
13	0	0	0	0	540	615	
14	0	0	0	0	539	615	
15	0	0	0	0	539	615	
0	0	0	0	0	538	615	
1	0	0	0	0	537	615	
2	0	0	0	0	538	615	
3	0	0	0	0	538	615	
4	0	0	0	0	538	615	
5	0	0	0	0	538	615	
6	0	0	0	0	538	615	
7	0	0	0	0	538	615	
8	0	0	0	0	538	615	
9	0	0	0	0	538	615	
10	0	0	0	0	538	615	
11	0	0	0	0	538	615	
12	0	0	0	0	538	616	
13	0	0	0	0	537	615	
14	0	0	0	0	536	615	
15	0	0	0	0	536	615	
0	0	0	0	0	536	615	
1	0	0	0	0	537	615	
2	0	0	0	0	536	615	
3	0	0	0	0	536	615	
4	0	0	0	0	536	615	
5	0	0	0	0	536	615	
6	0	0	0	0	537	615	
7	0	0	0	0	537	615	
8	0	0	0	0	537	615	
9	0	0	0	0	537	615	
10	0	0	0	0	536	615	
11	0	0	0	0	535	616	
12	0	0	0	0	534	616	
13	0	0	0	0	532	615	
14	0	0	0	0	533	615	
15	0	0	0	0	534	615	
0	0	0	0	0	536	616	
1	0	0	0	0	536	616	
2	0	0	0	0	537	615	
3	0	0	0	0	536	615	
4	0	0	0	0	536	615	
5	0	0	0	0	535	615	
6	0	0	0	0	536	615	
7	0	0	0	0	536	615	
8	0	0	0	0	537	616	
9	0	0	0	0	537	616	
10	0	0	0	0	538	616	
11	0	0	0	0	539	616	
12	0	0	0	0	540	616	
13	0	0	0	0	540	616	
14	0	0	0	0	540	615	
15	0	0	0	0	540	616	
0	0	0	0	0	539	616	
1	0	0	0	0	539	616	
2	0	0	0	0	537	616	
3	0	0	0	0	536	615	
4	0	0	0	0	536	616	
5	0	0	0	0	536	616	
6	0	0	0	0	536	616	
7	0	0	0	0	536	616	
8	0	0	0	0	536	616	
9	0	0	0	0	536	616	
10	0	0	0	0	536	616	
11	0	0	0	0	536	616	
12	0	0	0	0	536	616	
13	0	0	0	0	536	616	
14	0	0	0	0	536	616	
15	0	0	0	0	535	616	
0	0	0	0	0	534	616	
1	0	0	0	0	532	616	
2	0	0	0	0	531	615	
3	0	0	0	0	530	616	
4	0	0	0	0	529	616	
5	0	0	0	0	527	616	
6	0	0	0	0	527	616	
7	0	0	0	0	526	615	
8	0	0	0	0	526	616	
9	0	0	0	0	525	616	
10	0	0	0	0	524	616	
11	0	0	0	0	522	616	
12	0	0	0	0	520	616	
13	0	0	0	0	519	616	
14	0	0	0	0	517	616	
15	0	0	0	0	515	616	
0	0	0	0	0	513	616	
1	0	0	0	0	511	616	
2	0	0	0	0	510	616	
3	0	0	0	0	507	616	
4	0	0	0	0	506	616	
5	0	0	0	0	504	616	
6	0	0	0	0	503	616	
7	0	0	0	0	502	616	
8	0	0	0	0	500	616	
9	0	0	0	0	498	616	
10	0	0	0	0	497	616	
11	0	0	0	0	496	616	
12	0	0	0	0	496	616	
13	0	0	0	0	496	616	
14	0	0	0	0	494	616	
15	0	0	0	0	492	616	
0	0	0	0	0	490	616	
1	0	0	0	0	489	616	
2	0	0	0	0	488	616	
3	0	0	0	0	487	616	
4	0	0	0	0	485	616	
5	0	0	0	0	482	616	
6	0	0	0	0	481	616	
7	0	0	0	0	480	616	
8	0	0	0	0	480	616	
9	0	0	0	0	479	616	
10	0	0	0	0	479	616	
11	0	0	0	0	478	616	
12	0	0	0	0	478	616	
13	0	0	0	0	477	616	
14	0	0	0	0	477	616	
15	0	0	0	0	477	616	
0	0	0	0	0	477	616	
1	0	0	0	0	476	616	
2	0	0	0	0	475	616	
3	0	0	0	0	473	616	
4	0	0	0	0	472	616	
5	0	0	0	0	472	616	
6	0	0	0	0	472	616	
7	0	0	0	0	472	616	
8	0	0	0	0	472	616	
9	0	0	0	0	471	616	
10	0	0	0	0	471	616	
11	0	0	0	0	471	616	
12	0	0	0	0	469	616	
13	0	0	0	0	469	616	
14	0	0	0	0	470	616	
15	0	0	0	0	470	616	
0	0	0	0	0	468	616	
1	0	0	0	0	468	616	
2	0	0	0	0	468	616	
3	0	0	0	0	468	616	
4	0	0	0	0	469	616	
5	0	0	0	0	469	616	
6	0	0	0	0	468	616	
7	0	0	0	0	469	616	
8	0	0	0	0	469	616	
9	0	0	0	0	471	616	
10	0	0	0	0	472	616	
11	0	0	0	0	472	616	
12	0	0	0	0	472	616	
13	0	0	0	0	472	616	
14	0	0	0	0	473	616	
15	0	0	0	0	474	616	
0	0	0	0	0	475	616	
1	0	0	0	0	476	616	
2	0	0	0	0	477	616	
3	0	0	0	0	478	617	
4	0	0	0	0	477	616	
5	0	0	0	0	478	616	
6	0	0	0	0	479	616	
7	0	0	0	0	479	616	
8	0	0	0	0	480	617	
9	0	0	0	0	479	616	
10	0	0	0	0	480	616	
11	0	0	0	0	480	616	
12	0	0	0	0	481	616	
13	0	0	0	0	481	617	
14	0	0	0	0	480	617	
15	0	0	0	0	481	616	
0	0	0	0	0	480	616	
1	0	0	0	0	481	616	
2	0	0	0	0	482	616	
3	0	0	0	0	482	616	
4	0	0	0	0	482	617	
5	0	0	0	0	482	616	
6	0	0	0	0	482	616	
7	0	0	0	0	483	617	
8	0	0	0	0	483	617	
9	0	0	0	0	484	617	
10	0	0	0	0	485	616	
11	0	0	0	0	486	616	
12	0	0	0	0	488	617	
13	0	0	0	0	490	617	
14	0	0	0	0	491	617	
15	0	0	0	0	491	616	
0	0	0	0	0	491	617	
1	0	0	0	0	490	616	
2	0	0	0	0	490	616	
3	0	0	0	0	490	617	
4	0	0	0	0	491	616	
5	0	0	0	0	490	616	
6	0	0	0	0	491	617	
7	0	0	0	0	491	616	
8	0	0	0	0	491	617	
9	0	0	0	0	490	617	
10	0	0	0	0	489	616	
11	0	0	0	0	490	617	
12	0	0	0	0	489	617	
13	0	0	0	0	488	617	
14	0	0	0	0	489	617	
15	0	0	0	0	489	617	
0	0	0	0	0	489	617	
1	0	0	0	0	489	617	
2	0	0	0	0	488	617	
3	0	0	0	0	487	617	
4	0	0	0	0	487	617	
5	0	0	0	0	487	617	
6	0	0	0	0	487	617	
7	0	0	0	0	486	617	
8	0	0	0	0	486	617	
9	0	0	0	0	486	617	
10	0	0	0	0	486	617	
11	0	0	0	0	486	617	
12	0	0	0	0	487	617	
13	0	0	0	0	487	617	
14	0	0	0	0	486	617	
15	0	0	0	0	486	617	
0	0	0	0	0	485	617	
1	0	0	0	0	485	617	
2	0	0	0	0	485	617	
3	0	0	0	0	486	617	
4	0	0	0	0	486	617	
5	0	0	0	0	486	617	
6	0	0	0	0	486	617	
7	0	0	0	0	486	617	
8	0	0	0	0	486	617	
9	0	0	0	0	487	617	
10	0	0	0	0	488	617	
11	0	0	0	0	489	617	
12	0	0	0	0	489	617	
13	0	0	0	0	489	617	
14	0	0	0	0	489	617	
15	0	0	0	0	490	617	
0	0	0	0	0	490	617	
1	0	0	0	0	491	617	
2	0	0	0	0	490	617	
3	0	0	0	0	491	617	
4	0	0	0	0	492	617	
5	0	0	0	0	491	617	
6	0	0	0	0	491	617	
7	0	0	0	0	491	617	
8	0	0	0	0	492	617	
9	0	0	0	0	493	617	
10	0	0	0	0	495	617	
11	0	0	0	0	496	617	
12	0	0	0	0	498	617	
13	0	0	0	0	499	617	
14	0	0	0	0	499	617	
15	0	0	0	0	498	617	
0	0	0	0	0	498	617	
1	0	0	0	0	497	617	
2	0	0	0	0	496	617	
3	0	0	0	0	495	617	
4	0	0	0	0	495	617	
5	0	0	0	0	496	617	
6	0	0	0	0	496	617	
7	0	0	0	0	496	617	
8	0	0	0	0	497	617	
9	0	0	0	0	496	617	
10	0	0	0	0	497	617	
11	0	0	0	0	498	617	
12	0	0	0	0	499	617	
13	0	0	0	0	499	617	
14	0	0	0	0	500	617	
15	0	0	0	0	501	617	
0	0	0	0	0	502	617	
1	0	0	0	0	502	617	
2	0	0	0	0	502	617	
3	0	0	0	0	502	617	
4	0	0	0	0	503	617	
5	0	0	0	0	503	617	
6	0	0	0	0	503	617	
7	0	0	0	0	503	617	
8	0	0	0	0	503	617	
9	0	0	0	0	502	617	
10	0	0	0	0	501	617	
11	0	0	0	0	502	617	
12	0	0	0	0	502	617	
13	0	0	0	0	504	617	
14	0	0	0	0	505	617	
15	0	0	0	0	505	617	
0	0	0	0	0	506	617	
1	0	0	0	0	506	617	
2	0	0	0	0	505	617	
3	0	0	0	0	506	617	
4	0	0	0	0	507	617	
5	0	0	0	0	508	617	
6	0	0	0	0	508	617	
7	0	0	0	0	508	617	
8	0	0	0	0	508	617	
9	0	0	0	0	510	617	
10	0	0	0	0	511	617	
11	0	0	0	0	511	617	
12	0	0	0	0	512	617	
13	0	0	0	0	513	617	
14	0	0	0	0	512	617	
15	0	0	0	0	513	617	
0	0	0	0	0	513	617	
1	0	0	0	0	513	617	
2	0	0	0	0	513	617	
3	0	0	0	0	514	617	
4	0	0	0	0	514	617	
5	0	0	0	0	515	617	
6	0	0	0	0	515	617	
7	0	0	0	0	515	617	
8	0	0	0	0	515	617	
9	0	0	0	0	515	617	
10	0	0	0	0	515	617	
11	0	0	0	0	515	617	
12	0	0	0	0	515	617	
13	0	0	0	0	515	617	
14	0	0	0	0	515	617	
15	0	0	0	0	514	617	
0	0	0	0	0	515	617	
1	0	0	0	0	515	617	
2	0	0	0	0	514	617	
3	0	0	0	0	514	617	
4	0	0	0	0	513	617	
5	0	0	0	0	513	617	
6	0	0	0	0	512	617	
7	0	0	0	0	512	617	
8	0	0	0	0	512	617	
9	0	0	0	0	511	617	
10	0	0	0	0	511	617	
11	0	0	0	0	510	617	
12	0	0	0	0	511	617	
13	0	0	0	0	511	617	
14	0	0	0	0	511	617	
15	0	0	0	0	511	617	
0	0	0	0	0	511	617	
1	0	0	0	0	511	617	
2	0	0	0	0	512	617	
3	0	0	0	0	511	617	
4	0	0	0	0	511	617	
5	0	0	0	0	511	617	
6	0	0	0	0	510	617	
7	0	0	0	0	509	617	
8	0	0	0	0	507	617	
9	0	0	0	0	505	617	
10	0	0	0	0	505	617	
11	0	0	0	0	505	617	
12	0	0	0	0	506	617	
13	0	0	0	0	507	617	
14	0	0	0	0	505	617	
15	0	0	0	0	504	617	
0	0	0	0	0	503	617	
1	0	0	0	0	503	617	
2	0	0	0	0	503	617	
3	0	0	0	0	503	617	
4	0	0	0	0	502	617	
5	0	0	0	0	501	617	
6	0	0	0	0	501	617	
7	0	0	0	0	502	617	
8	0	0	0	0	504	617	
9	0	0	0	0	505	617	
10	0	0	0	0	506	617	
11	0	0	0	0	507	617	
12	0	0	0	0	507	617	
13	0	0	0	0	507	617	
14	0	0	0	0	507	617	
15	0	0	0	0	507	617	
0	0	0	0	0	507	617	
1	0	0	0	0	507	617	
2	0	0	0	0	506	617	
3	0	0	0	0	507	617	
4	0	0	0	0	507	617	
5	0	0	0	0	508	617	
6	0	0	0	0	508	617	
7	0	0	0	0	508	617	
8	0	0	0	0	508	617	
9	0	0	0	0	508	617	
10	0	0	0	0	507	617	
11	0	0	0	0	507	617	
12	0	0	0	0	506	617	
13	0	0	0	0	506	617	
14	0	0	0	0	505	617	
15	0	0	0	0	505	617	
0	0	0	0	0	505	617	
1	0	0	0	0	506	617	
2	0	0	0	0	506	617	
3	0	0	0	0	505	617	
4	0	0	0	0	507	617	
5	0	0	0	0	508	617	
6	0	0	0	0	508	617	
7	0	0	0	0	508	617	
8	0	0	0	0	508	617	
9	0	0	0	0	510	617	
10	0	0	0	0	510	617	
11	0	0	0	0	508	617	
12	0	0	0	0	508	617	
13	0	0	0	0	508	617	
14	0	0	0	0	507	617	
15	0	0	0	0	506	617	
0	0	0	0	0	506	617	
1	0	0	0	0	506	617	
2	0	0	0	0	506	617	
3	0	0	0	0	506	617	
4	0	0	0	0	505	617	
5	0	0	0	0	505	617	
6	0	0	0	0	506	617	
7	0	0	0	0	506	617	
8	0	0	0	0	507	617	
9	0	0	0	0	508	617	
10	0	0	0	0	508	617	
11	0	0	0	0	507	617	
12	0	0	0	0	506	617	
13	0	0	0	0	506	617	
14	0	0	0	0	505	617	
15	0	0	0	0	505	617	
0	0	0	0	0	505	617	
1	0	0	0	0	505	617	
2	0	0	0	0	505	617	
3	0	0	0	0	504	617	
4	0	0	0	0	505	617	
5	0	0	0	0	506	617	
6	0	0	0	0	506	617	
7	0	0	0	0	506	617	
8	0	0	0	0	506	617	
9	0	0	0	0	505	617	
10	0	0	0	0	504	617	
11	0	0	0	0	503	617	
12	0	0	0	0	503	617	
13	0	0	0	0	503	617	
14	0	0	0	0	503	617	
15	0	0	0	0	502	617	
0	0	0	0	0	501	617	
1	0	0	0	0	502	617	
2	0	0	0	0	502	617	
3	0	0	0	0	503	617	
4	0	0	0	0	504	617	
5	0	0	0	0	504	617	
6	0	0	0	0	504	617	
7	0	0	0	0	505	617	
8	0	0	0	0	504	617	
9	0	0	0	0	504	617	
10	0	0	0	0	506	617	
11	0	0	0	0	507	617	
12	0	0	0	0	507	617	
13	0	0	0	0	508	617	
14	0	0	0	0	508	617	
15	0	0	0	0	507	617	
0	0	0	0	0	506	617	
1	0	0	0	0	506	617	
2	0	0	0	0	505	617	
3	0	0	0	0	504	617	
4	0	0	0	0	504	617	
5	0	0	0	0	505	617	
6	0	0	0	0	507	617	
7	0	0	0	0	507	617	
8	0	0	0	0	508	617	
9	0	0	0	0	508	617	
10	0	0	0	0	509	617	
11	0	0	0	0	509	617	
12	0	0	0	0	510	617	
13	0	0	0	0	510	617	
14	0	0	0	0	509	617	
15	0	0	0	0	508	617	
0	0	0	0	0	508	617	
1	0	0	0	0	507	617	
2	0	0	0	0	507	617	
3	0	0	0	0	507	617	
4	0	0	0	0	507	617	
5	0	0	0	0	508	617	
6	0	0	0	0	508	617	
7	0	0	0	0	508	617	
8	0	0	0	0	508	617	
9	0	0	0	0	508	617	
10	0	0	0	0	508	617	
11	0	0	0	0	508	617	
12	0	0	0	0	509	617	
13	0	0	0	0	509	617	
14	0	0	0	0	509	617	
15	0	0	0	0	509	617	
0	0	0	0	0	508	617	
1	0	0	0	0	508	617	
2	0	0	0	0	507	617	
3	0	0	0	0	508	617	
4	0	0	0	0	508	617	
5	0	0	0	0	508	617	
6	0	0	0	0	508	617	
7	0	0	0	0	508	617	
8	0	0	0	0	509	617	
9	0	0	0	0	509	617	
10	0	0	0	0	511	617	
11	0	0	0	0	511	617	
12	0	0	0	0	511	617	
13	0	0	0	0	512	617	
14	0	0	0	0	512	617	
15	0	0	0	0	513	617	
0	0	0	0	0	513	617	
1	0	0	0	0	514	617	
2	0	0	0	0	513	617	
3	0	0	0	0	513	617	
4	0	0	0	0	512	617	
5	0	0	0	0	512	617	
6	0	0	0	0	512	617	
7	0	0	0	0	511	617	
8	0	0	0	0	510	617	
9	0	0	0	0	510	617	
10	0	0	0	0	510	617	
11	0	0	0	0	511	617	
12	0	0	0	0	511	617	
13	0	0	0	0	511	617	
14	0	0	0	0	511	617	
15	0	0	0	0	510	617	
0	0	0	0	0	510	617	
1	0	0	0	0	510	617	
2	0	0	0	0	510	617	
3	0	0	0	0	510	617	
4	0	0	0	0	510	617	
5	0	0	0	0	511	617	
6	0	0	0	0	512	617	
7	0	0	0	0	511	617	
8	0	0	0	0	511	617	
9	0	0	0	0	511	617	
10	0	0	0	0	510	617	
11	0	0	0	0	509	617	
12	0	0	0	0	508	617	
13	0	0	0	0	508	617	
14	0	0	0	0	508	617	
15	0	0	0	0	509	617	
0	0	0	0	0	509	617	
1	0	0	0	0	510	617	
2	0	0	0	0	510	617	
3	0	0	0	0	509	617	
4	0	0	0	0	510	616	
5	0	0	0	0	510	617	
6	0	0	0	0	509	617	
7	0	0	0	0	509	617	
8	0	0	0	0	509	617	
9	0	0	0	0	509	617	
10	0	0	0	0	511	617	
11	0	0	0	0	511	617	
12	0	0	0	0	512	617	
13	0	0	0	0	512	617	
14	0	0	0	0	512	616	
15	0	0	0	0	513	617	
0	0	0	0	0	512	616	
1	0	0	0	0	512	616	
2	0	0	0	0	512	617	
3	0	0	0	0	512	616	
4	0	0	0	0	513	617	
5	0	0	0	0	513	617	
6	0	0	0	0	512	617	
7	0	0	0	0	512	617	
8	0	0	0	0	513	616	
9	0	0	0	0	513	617	
10	0	0	0	0	513	617	
11	0	0	0	0	513	616	
12	0	0	0	0	513	616	
13	0	0	0	0	513	616	
14	0	0	0	0	513	616	
15	0	0	0	0	513	617	
0	0	0	0	0	512	617	
1	0	0	0	0	512	617	
2	0	0	0	0	513	616	
3	0	0	0	0	513	616	
4	0	0	0	0	513	617	
5	0	0	0	0	514	617	
6	0	0	0	0	515	617	
7	0	0	0	0	516	616	
8	0	0	0	0	517	616	
9	0	0	0	0	518	616	
10	0	0	0	0	518	616	
11	0	0	0	0	519	617	
12	0	0	0	0	518	616	
13	0	0	0	0	519	617	
14	0	0	0	0	519	617	
15	0	0	0	0	518	616	
0	0	0	0	0	517	616	
1	0	0	0	0	515	616	
2	0	0	0	0	513	617	
3	0	0	0	0	512	617	
4	0	0	0	0	511	617	
5	0	0	0	0	511	617	
6	0	0	0	0	511	616	
7	0	0	0	0	512	617	
8	0	0	0	0	512	616	
9	0	0	0	0	512	616	
10	0	0	0	0	512	617	
11	0	0	0	0	512	616	
12	0	0	0	0	514	617	
13	0	0	0	0	514	616	
14	0	0	0	0	515	617	
15	0	0	0	0	514	616	
0	0	0	0	0	514	616	
1	0	0	0	0	515	616	
2	0	0	0	0	514	616	
3	0	0	0	0	514	616	
4	0	0	0	0	514	617	
5	0	0	0	0	513	617	
6	0	0	0	0	514	616	
7	0	0	0	0	514	616	
8	0	0	0	0	513	616	
9	0	0	0	0	513	616	
10	0	0	0	0	513	616	
11	0	0	0	0	515	616	
12	0	0	0	0	516	616	
13	0	0	0	0	517	616	
14	0	0	0	0	518	617	
15	0	0	0	0	519	616	
0	0	0	0	0	519	617	
1	0	0	0	0	521	616	
2	0	0	0	0	523	616	
3	0	0	0	0	523	616	
4	0	0	0	0	523	616	
5	0	0	0	0	523	616	
6	0	0	0	0	522	616	
7	0	0	0	0	522	616	
8	0	0	0	0	523	617	
9	0	0	0	0	522	616	
10	0	0	0	0	522	616	
11	0	0	0	0	522	616	
12	0	0	0	0	523	616	
13	0	0	0	0	523	617	
14	0	0	0	0	523	616	
15	0	0	0	0	522	616	
0	0	0	0	0	521	616	
1	0	0	0	0	521	616	
2	0	0	0	0	521	617	
3	0	0	0	0	520	616	
4	0	0	0	0	519	616	
5	0	0	0	0	517	616	
6	0	0	0	0	516	616	
7	0	0	0	0	515	617	
8	0	0	0	0	514	616	
9	0	0	0	0	514	616	
10	0	0	0	0	514	616	
11	0	0	0	0	513	616	
12	0	0	0	0	513	616	
13	0	0	0	0	512	616	
14	0	0	0	0	511	616	
15	0	0	0	0	510	616	
0	0	0	0	0	510	616	
1	0	0	0	0	510	616	
2	0	0	0	0	509	616	
3	0	0	0	0	508	617	
4	0	0	0	0	508	616	
5	0	0	0	0	507	616	
6	0	0	0	0	506	616	
7	0	0	0	0	504	616	
8	0	0	0	0	503	616	
9	0	0	0	0	502	616	
10	0	0	0	0	503	616	
11	0	0	0	0	503	616	
12	0	0	0	0	503	616	
13	0	0	0	0	502	616	
14	0	0	0	0	502	616	
15	0	0	0	0	501	616	
0	0	0	0	0	500	616	
1	0	0	0	0	499	616	
2	0	0	0	0	499	616	
3	0	0	0	0	498	616	
4	0	0	0	0	498	616	
5	0	0	0	0	498	616	
6	0	0	0	0	499	616	
7	0	0	0	0	500	616	
8	0	0	0	0	500	616	
9	0	0	0	0	500	617	
10	0	0	0	0	501	616	
11	0	0	0	0	502	616	
12	0	0	0	0	503	616	
13	0	0	0	0	504	616	
14	0	0	0	0	503	616	
15	0	0	0	0	503	616	
0	0	0	0	0	503	616	
1	0	0	0	0	504	616	
2	0	0	0	0	505	616	
3	0	0	0	0	506	616	
4	0	0	0	0	506	616	
5	0	0	0	0	505	616	
6	0	0	0	0	505	616	
7	0	0	0	0	505	616	
8	0	0	0	0	506	616	
9	0	0	0	0	507	616	
10	0	0	0	0	508	616	
11	0	0	0	0	508	616	
12	0	0	0	0	507	616	
13	0	0	0	0	507	616	
14	0	0	0	0	507	616	
15	0	0	0	0	508	616	
0	0	0	0	0	508	616	
1	0	0	0	0	508	616	
2	0	0	0	0	509	616	
3	0	0	0	0	509	616	
4	0	0	0	0	509	616	
5	0	0	0	0	511	616	
6	0	0	0	0	511	616	
7	0	0	0	0	511	616	
8	0	0	0	0	512	616	
9	0	0	0	0	512	616	
10	0	0	0	0	512	616	
11	0	0	0	0	512	616	
12	0	0	0	0	512	616	
13	0	0	0	0	512	616	
14	0	0	0	0	512	616	
15	0	0	0	0	512	616	
0	0	0	0	0	512	616	
1	0	0	0	0	512	616	
2	0	0	0	0	513	616	
3	0	0	0	0	513	616	
4	0	0	0	0	514	616	
5	0	0	0	0	515	616	
6	0	0	0	0	517	616	
7	0	0	0	0	519	616	
8	0	0	0	0	521	616	
9	0	0	0	0	525	616	
10	0	0	0	0	529	616	
11	0	0	0	0	534	616	
12	0	0	0	0	538	616	
13	0	0	0	0	542	616	
14	0	0	0	0	547	616	
15	0	0	0	0	552	616	
0	0	0	0	0	558	616	
1	0	0	0	0	563	616	
2	0	0	0	0	568	616	
3	0	0	0	0	573	616	
4	0	0	0	0	576	616	
5	0	0	0	0	580	616	
6	0	0	0	0	582	616	
7	0	0	0	0	584	616	
8	0	0	0	0	588	616	
9	0	0	0	0	590	616	
10	0	0	0	0	592	616	
11	0	0	0	0	593	616	
12	0	0	0	0	592	616	
13	0	0	0	0	591	616	
14	0	0	0	0	588	616	
15	0	0	0	0	583	616	
0	0	0	0	0	576	616	
1	0	0	0	0	568	616	
2	0	0	0	0	558	616	
3	0	0	0	0	545	616	
4	0	0	0	0	533	616	
5	0	0	0	0	519	616	
6	0	0	0	0	504	616	
7	0	0	0	0	489	616	
8	0	0	0	0	474	616	
9	0	0	0	0	460	616	
10	0	0	0	0	447	616	
11	0	0	0	0	433	616	
12	0	0	0	0	420	616	
13	0	0	0	0	409	616	
14	0	0	0	0	398	616	
15	0	0	0	0	389	616	
0	0	0	0	0	383	616	
1	0	0	0	0	380	616	
2	0	0	0	0	379	616	
3	0	0	0	0	380	616	
4	0	0	0	0	384	616	
5	0	0	0	0	390	616	
6	0	0	0	0	396	616	
7	0	0	0	0	403	615	
8	0	0	0	0	409	616	
9	0	0	0	0	415	615	
10	0	0	0	0	420	616	
11	0	0	0	0	426	616	
12	0	0	0	0	431	616	
13	0	0	0	0	435	616	
14	0	0	0	0	439	616	
15	0	0	0	0	442	615	
0	0	0	0	0	445	616	
1	0	0	0	0	448	616	
2	0	0	0	0	452	616	
3	0	0	0	0	457	616	
4	0	0	0	0	463	616	
5	0	0	0	0	469	616	
6	0	0	0	0	472	616	
7	0	0	0	0	475	616	
8	0	0	0	0	478	616	
9	0	0	0	0	481	615	
10	0	0	0	0	484	616	
11	0	0	0	0	486	616	
12	0	0	0	0	489	615	
13	0	0	0	0	492	615	
14	0	0	0	0	495	615	
15	0	0	0	0	497	616	
0	0	0	0	0	499	616	
1	0	0	0	0	501	615	
2	0	0	0	0	504	616	
3	0	0	0	0	506	615	
4	0	0	0	0	508	616	
5	0	0	0	0	509	615	
6	0	0	0	0	510	616	
7	0	0	0	0	511	616	
8	0	0	0	0	512	615	
9	0	0	0	0	513	616	
10	0	0	0	0	514	616	
11	0	0	0	0	515	615	
12	0	0	0	0	515	616	
13	0	0	0	0	515	615	
14	0	0	0	0	517	616	
15	0	0	0	0	518	615	
0	0	0	0	0	519	615	
1	0	0	0	0	518	615	
2	0	0	0	0	518	615	
3	0	0	0	0	519	616	
4	0	0	0	0	519	616	
5	0	0	0	0	520	615	
6	0	0	0	0	522	616	
7	0	0	0	0	523	615	
8	0	0	0	0	523	616	
9	0	0	0	0	522	615	
10	0	0	0	0	521	615	
11	0	0	0	0	521	615	
12	0	0	0	0	520	615	
13	0	0	0	0	520	616	
14	0	0	0	0	520	615	
15	0	0	0	0	521	615	
0	0	0	0	0	521	615	
1	0	0	0	0	521	615	
2	0	0	0	0	522	615	
3	0	0	0	0	522	615	
4	0	0	0	0	524	615	
5	0	0	0	0	525	615	
6	0	0	0	0	526	615	
7	0	0	0	0	527	615	
8	0	0	0	0	527	615	
9	0	0	0	0	527	615	
10	0	0	0	0	528	615	
11	0	0	0	0	529	615	
12	0	0	0	0	530	615	
13	0	0	0	0	530	615	
14	0	0	0	0	531	615	
15	0	0	0	0	532	615	
0	0	0	0	0	533	615	
1	0	0	0	0	535	615	
2	0	0	0	0	536	615	
3	0	0	0	0	537	615	
4	0	0	0	0	538	615	
5	0	0	0	0	540	615	
6	0	0	0	0	541	615	
7	0	0	0	0	543	615	
8	0	0	0	0	543	615	
9	0	0	0	0	541	615	
10	0	0	0	0	540	615	
11	0	0	0	0	540	615	
12	0	0	0	0	540	615	
13	0	0	0	0	540	615	
14	0	0	0	0	540	615	
15	0	0	0	0	540	615	
0	0	0	0	0	540	615	
1	0	0	0	0	540	615	
2	0	0	0	0	542	615	
3	0	0	0	0	542	615	
4	0	0	0	0	543	615	
5	0	0	0	0	543	615	
6	0	0	0	0	543	615	
7	0	0	0	0	543	615	
8	0	0	0	0	543	615	
9	0	0	0	0	544	615	
10	0	0	0	0	545	615	
11	0	0	0	0	544	615	
12	0	0	0	0	544	615	
13	0	0	0	0	543	615	
14	0	0	0	0	543	615	
15	0	0	0	0	543	615	
0	0	0	0	0	544	615	
1	0	0	0	0	544	615	
2	0	0	0	0	543	615	
3	0	0	0	0	543	615	
4	0	0	0	0	544	615	
5	0	0	0	0	543	615	
6	0	0	0	0	543	615	
7	0	0	0	0	543	615	
8	0	0	0	0	544	615	
9	0	0	0	0	545	615	
10	0	0	0	0	545	615	
11	0	0	0	0	544	615	
12	0	0	0	0	543	615	
13	0	0	0	0	542	615	
14	0	0	0	0	542	615	
15	0	0	0	0	542	615	
0	0	0	0	0	542	615	
1	0	0	0	0	542	615	
2	0	0	0	0	542	615	
3	0	0	0	0	543	615	
4	0	0	0	0	542	615	
5	0	0	0	0	541	615	
6	0	0	0	0	541	615	
7	0	0	0	0	540	615	
8	0	0	0	0	540	615	
9	0	0	0	0	540	615	
10	0	0	0	0	540	615	
11	0	0	0	0	542	615	
12	0	0	0	0	543	615	
13	0	0	0	0	544	615	
14	0	0	0	0	545	615	
15	0	0	0	0	547	615	
0	0	0	0	0	547	615	
1	0	0	0	0	547	615	
2	0	0	0	0	547	615	
3	0	0	0	0	546	615	
4	0	0	0	0	545	615	
5	0	0	0	0	545	615	
6	0	0	0	0	545	615	
7	0	0	0	0	545	615	
8	0	0	0	0	544	615	
9	0	0	0	0	544	615	
10	0	0	0	0	545	615	
11	0	0	0	0	544	615	
12	0	0	0	0	544	615	
13	0	0	0	0	545	615	
14	0	0	0	0	544	615	
15	0	0	0	0	545	615	
0	0	0	0	0	546	615	
1	0	0	0	0	547	615	
2	0	0	0	0	547	615	
3	0	0	0	0	548	615	
4	0	0	0	0	547	615	
5	0	0	0	0	547	615	
6	0	0	0	0	548	615	
7	0	0	0	0	547	615	
8	0	0	0	0	547	615	
9	0	0	0	0	547	615	
10	0	0	0	0	547	615	
11	0	0	0	0	547	615	
12	0	0	0	0	547	615	
13	0	0	0	0	547	615	
14	0	0	0	0	547	615	
15	0	0	0	0	547	615	
0	0	0	0	0	547	615	
1	0	0	0	0	548	615	
2	0	0	0	0	548	615	
3	0	0	0	0	548	615	
4	0	0	0	0	547	615	
5	0	0	0	0	546	615	
6	0	0	0	0	545	615	
7	0	0	0	0	543	615	
8	0	0	0	0	541	615	
9	0	0	0	0	539	615	
10	0	0	0	0	540	615	
11	0	0	0	0	540	615	
12	0	0	0	0	539	615	
13	0	0	0	0	539	615	
14	0	0	0	0	537	615	
15	0	0	0	0	536	615	
0	0	0	0	0	536	615	
1	0	0	0	0	535	615	
2	0	0	0	0	535	615	
3	0	0	0	0	535	615	
4	0	0	0	0	536	615	
5	0	0	0	0	536	615	
6	0	0	0	0	535	615	
7	0	0	0	0	535	615	
8	0	0	0	0	534	615	
9	0	0	0	0	534	615	
10	0	0	0	0	533	615	
11	0	0	0	0	531	615	
12	0	0	0	0	529	615	
13	0	0	0	0	527	615	
14	0	0	0	0	525	615	
15	0	0	0	0	524	615	
0	0	0	0	0	523	615	
1	0	0	0	0	521	615	
2	0	0	0	0	519	615	
3	0	0	0	0	519	615	
4	0	0	0	0	518	615	
5	0	0	0	0	517	615	
6	0	0	0	0	516	615	
7	0	0	0	0	515	615	
8	0	0	0	0	513	615	
9	0	0	0	0	510	615	
10	0	0	0	0	507	615	
11	0	0	0	0	505	615	
12	0	0	0	0	502	615	
13	0	0	0	0	500	615	
14	0	0	0	0	499	615	
15	0	0	0	0	498	615	
0	0	0	0	0	496	615	
1	0	0	0	0	495	615	
2	0	0	0	0	494	615	
3	0	0	0	0	492	615	
4	0	0	0	0	490	615	
5	0	0	0	0	489	615	
6	0	0	0	0	488	615	
7	0	0	0	0	487	615	
8	0	0	0	0	485	615	
9	0	0	0	0	484	615	
10	0	0	0	0	484	615	
11	0	0	0	0	483	615	
12	0	0	0	0	483	615	
13	0	0	0	0	481	615	
14	0	0	0	0	480	615	
15	0	0	0	0	479	615	
0	0	0	0	0	478	615	
1	0	0	0	0	477	615	
2	0	0	0	0	477	615	
3	0	0	0	0	477	615	
4	0	0	0	0	477	615	
5	0	0	0	0	476	615	
6	0	0	0	0	475	615	
7	0	0	0	0	475	615	
8	0	0	0	0	473	615	
9	0	0	0	0	473	615	
10	0	0	0	0	471	615	
11	0	0	0	0	471	615	
12	0	0	0	0	470	615	
13	0	0	0	0	470	615	
14	0	0	0	0	470	615	
15	0	0	0	0	470	615	
0	0	0	0	0	470	615	
1	0	0	0	0	470	615	
2	0	0	0	0	471	615	
3	0	0	0	0	472	615	
4	0	0	0	0	472	615	
5	0	0	0	0	473	615	
6	0	0	0	0	474	615	
7	0	0	0	0	475	615	
8	0	0	0	0	476	615	
9	0	0	0	0	476	615	
10	0	0	0	0	477	615	
11	0	0	0	0	477	615	
12	0	0	0	0	477	615	
13	0	0	0	0	477	615	
14	0	0	0	0	477	615	
15	0	0	0	0	476	615	
0	0	0	0	0	475	615	
1	0	0	0	0	474	615	
2	0	0	0	0	473	615	
3	0	0	0	0	473	615	
4	0	0	0	0	473	615	
5	0	0	0	0	474	615	
6	0	0	0	0	475	615	
7	0	0	0	0	476	615	
8	0	0	0	0	476	615	
9	0	0	0	0	476	615	
10	0	0	0	0	476	615	
11	0	0	0	0	476	615	
12	0	0	0	0	477	615	
13	0	0	0	0	478	615	
14	0	0	0	0	480	615	
15	0	0	0	0	481	615	
0	0	0	0	0	482	615	
1	0	0	0	0	483	615	
2	0	0	0	0	483	615	
3	0	0	0	0	484	615	
4	0	0	0	0	484	615	
5	0	0	0	0	485	615	
6	0	0	0	0	485	615	
7	0	0	0	0	484	615	
8	0	0	0	0	484	615	
9	0	0	0	0	483	615	
10	0	0	0	0	483	615	
11	0	0	0	0	483	615	
12	0	0	0	0	483	615	
13	0	0	0	0	484	615	
14	0	0	0	0	485	615	
15	0	0	0	0	486	615	
0	0	0	0	0	487	615	
1	0	0	0	0	487	615	
2	0	0	0	0	485	615	
3	0	0	0	0	485	615	
4	0	0	0	0	486	615	
5	0	0	0	0	484	615	
6	0	0	0	0	482	615	
7	0	0	0	0	481	615	
8	0	0	0	0	481	615	
9	0	0	0	0	480	615	
10	0	0	0	0	480	615	
11	0	0	0	0	481	615	
12	0	0	0	0	482	615	
13	0	0	0	0	483	615	
14	0	0	0	0	483	615	
15	0	0	0	0	484	615	
0	0	0	0	0	485	615	
1	0	0	0	0	486	615	
2	0	0	0	0	486	615	
3	0	0	0	0	487	615	
4	0	0	0	0	487	615	
5	0	0	0	0	486	615	
6	0	0	0	0	486	615	
7	0	0	0	0	486	615	
8	0	0	0	0	485	615	
9	0	0	0	0	484	615	
10	0	0	0	0	484	615	
11	0	0	0	0	484	615	
12	0	0	0	0	483	615	
13	0	0	0	0	481	615	
14	0	0	0	0	481	615	
15	0	0	0	0	481	615	
0	0	0	0	0	481	615	
1	0	0	0	0	481	615	
2	0	0	0	0	480	615	
3	0	0	0	0	479	615	
4	0	0	0	0	479	615	
5	0	0	0	0	479	615	
6	0	0	0	0	478	615	
7	0	0	0	0	478	615	
8	0	0	0	0	479	615	
9	0	0	0	0	479	615	
10	0	0	0	0	480	615	
11	0	0	0	0	480	615	
12	0	0	0	0	481	615	
13	0	0	0	0	481	615	
14	0	0	0	0	481	614	
15	0	0	0	0	483	615	
0	0	0	0	0	483	615	
1	0	0	0	0	485	614	
2	0	0	0	0	486	615	
3	0	0	0	0	487	615	
4	0	0	0	0	488	615	
5	0	0	0	0	489	615	
6	0	0	0	0	489	615	
7	0	0	0	0	489	615	
8	0	0	0	0	489	614	
9	0	0	0	0	489	614	
10	0	0	0	0	489	615	
11	0	0	0	0	490	615	
12	0	0	0	0	491	615	
13	0	0	0	0	492	614	
14	0	0	0	0	493	615	
15	0	0	0	0	493	615	
0	0	0	0	0	493	615	
1	0	0	0	0	494	615	
2	0	0	0	0	494	614	
3	0	0	0	0	494	615	
4	0	0	0	0	494	615	
5	0	0	0	0	494	614	
6	0	0	0	0	494	615	
7	0	0	0	0	494	614	
8	0	0	0	0	495	615	
9	0	0	0	0	496	615	
10	0	0	0	0	496	614	
11	0	0	0	0	496	615	
12	0	0	0	0	496	614	
13	0	0	0	0	497	615	
14	0	0	0	0	498	614	
15	0	0	0	0	499	614	
0	0	0	0	0	500	614	
1	0	0	0	0	502	614	
2	0	0	0	0	503	615	
3	0	0	0	0	504	614	
4	0	0	0	0	503	615	
5	0	0	0	0	504	614	
6	0	0	0	0	503	614	
7	0	0	0	0	502	614	
8	0	0	0	0	502	614	
9	0	0	0	0	503	614	
10	0	0	0	0	504	615	
11	0	0	0	0	504	614	
12	0	0	0	0	504	614	
13	0	0	0	0	504	614	
14	0	0	0	0	505	614	
15	0	0	0	0	507	615	
0	0	0	0	0	508	614	
1	0	0	0	0	510	615	
2	0	0	0	0	510	614	
3	0	0	0	0	512	614	
4	0	0	0	0	512	614	
5	0	0	0	0	512	614	
6	0	0	0	0	512	614	
7	0	0	0	0	513	614	
8	0	0	0	0	513	614	
9	0	0	0	0	514	614	
10	0	0	0	0	513	614	
11	0	0	0	0	513	614	
12	0	0	0	0	513	614	
13	0	0	0	0	513	614	
14	0	0	0	0	513	614	
15	0	0	0	0	513	614	
0	0	0	0	0	513	614	
1	0	0	0	0	513	614	
2	0	0	0	0	514	614	
3	0	0	0	0	515	614	
4	0	0	0	0	514	614	
5	0	0	0	0	514	614	
6	0	0	0	0	515	614	
7	0	0	0	0	514	614	
8	0	0	0	0	514	614	
9	0	0	0	0	514	614	
10	0	0	0	0	515	614	
11	0	0	0	0	515	614	
12	0	0	0	0	516	614	
13	0	0	0	0	517	614	
14	0	0	0	0	516	614	
15	0	0	0	0	517	614	
0	0	0	0	0	517	614	
1	0	0	0	0	516	614	
2	0	0	0	0	516	614	
3	0	0	0	0	516	614	
4	0	0	0	0	518	614	
5	0	0	0	0	520	614	
6	0	0	0	0	521	614	
7	0	0	0	0	523	614	
8	0	0	0	0	521	614	
9	0	0	0	0	521	614	
10	0	0	0	0	520	614	
11	0	0	0	0	519	614	
12	0	0	0	0	519	614	
13	0	0	0	0	518	614	
14	0	0	0	0	518	614	
15	0	0	0	0	516	614	
0	0	0	0	0	516	614	
1	0	0	0	0	515	614	
2	0	0	0	0	515	614	
3	0	0	0	0	516	614	
4	0	0	0	0	516	614	
5	0	0	0	0	515	614	
6	0	0	0	0	515	614	
7	0	0	0	0	514	614	
8	0	0	0	0	515	614	
9	0	0	0	0	513	614	
10	0	0	0	0	513	614	
11	0	0	0	0	514	614	
12	0	0	0	0	515	614	
13	0	0	0	0	515	614	
14	0	0	0	0	515	614	
15	0	0	0	0	515	614	
0	0	0	0	0	515	614	
1	0	0	0	0	514	614	
2	0	0	0	0	515	614	
3	0	0	0	0	515	614	
4	0	0	0	0	515	614	
5	0	0	0	0	515	614	
6	0	0	0	0	514	613	
7	0	0	0	0	513	614	
8	0	0	0	0	512	614	
9	0	0	0	0	513	614	
10	0	0	0	0	513	614	
11	0	0	0	0	512	613	
12	0	0	0	0	511	614	
13	0	0	0	0	511	614	
14	0	0	0	0	511	614	
15	0	0	0	0	511	614	
0	0	0	0	0	509	613	
1	0	0	0	0	510	614	
2	0	0	0	0	510	614	
3	0	0	0	0	510	614	
4	0	0	0	0	510	614	
5	0	0	0	0	510	613	
6	0	0	0	0	510	614	
7	0	0	0	0	511	614	
8	0	0	0	0	511	614	
9	0	0	0	0	511	614	
10	0	0	0	0	511	613	
11	0	0	0	0	511	614	
12	0	0	0	0	509	614	
13	0	0	0	0	508	614	
14	0	0	0	0	508	614	
15	0	0	0	0	506	613	
0	0	0	0	0	505	614	
1	0	0	0	0	504	614	
2	0	0	0	0	504	614	
3	0	0	0	0	503	613	
4	0	0	0	0	503	613	
5	0	0	0	0	504	614	
6	0	0	0	0	503	614	
7	0	0	0	0	502	613	
8	0	0	0	0	502	614	
9	0	0	0	0	502	613	
10	0	0	0	0	502	614	
11	0	0	0	0	502	613	
12	0	0	0	0	501	613	
13	0	0	0	0	500	613	
14	0	0	0	0	499	613	
15	0	0	0	0	498	613	
0	0	0	0	0	497	614	
1	0	0	0	0	496	613	
2	0	0	0	0	496	614	
3	0	0	0	0	496	613	
4	0	0	0	0	496	613	
5	0	0	0	0	497	613	
6	0	0	0	0	498	613	
7	0	0	0	0	497	613	
8	0	0	0	0	497	613	
9	0	0	0	0	498	614	
10	0	0	0	0	497	613	
11	0	0	0	0	497	613	
12	0	0	0	0	495	613	
13	0	0	0	0	494	613	
14	0	0	0	0	495	614	
15	0	0	0	0	495	613	
0	0	0	0	0	496	613	
1	0	0	0	0	496	613	
2	0	0	0	0	495	613	
3	0	0	0	0	495	614	
4	0	0	0	0	494	613	
5	0	0	0	0	494	613	
6	0	0	0	0	494	613	
7	0	0	0	0	494	613	
8	0	0	0	0	494	613	
9	0	0	0	0	494	613	
10	0	0	0	0	495	613	
11	0	0	0	0	495	613	
12	0	0	0	0	495	613	
13	0	0	0	0	496	613	
14	0	0	0	0	496	613	
15	0	0	0	0	496	613	
0	0	0	0	0	496	613	
1	0	0	0	0	497	613	
2	0	0	0	0	499	613	
3	0	0	0	0	499	613	
4	0	0	0	0	499	613	
5	0	0	0	0	499	613	
6	0	0	0	0	500	612	
7	0	0	0	0	502	613	
8	0	0	0	0	502	613	
9	0	0	0	0	503	613	
10	0	0	0	0	503	613	
11	0	0	0	0	504	613	
12	0	0	0	0	505	613	
13	0	0	0	0	504	613	
14	0	0	0	0	503	613	
15	0	0	0	0	503	613	
0	0	0	0	0	503	613	
1	0	0	0	0	505	613	
2	0	0	0	0	506	613	
3	0	0	0	0	506	613	
4	0	0	0	0	507	613	
5	0	0	0	0	508	613	
6	0	0	0	0	508	613	
7	0	0	0	0	508	613	
8	0	0	0	0	508	613	
9	0	0	0	0	508	613	
10	0	0	0	0	509	612	
11	0	0	0	0	510	613	
12	0	0	0	0	511	613	
13	0	0	0	0	511	613	
14	0	0	0	0	510	613	
15	0	0	0	0	510	612	
0	0	0	0	0	511	613	
1	0	0	0	0	512	613	
2	0	0	0	0	511	613	
3	0	0	0	0	511	613	
4	0	0	0	0	511	612	
5	0	0	0	0	513	613	
6	0	0	0	0	513	612	
7	0	0	0	0	513	612	
8	0	0	0	0	515	613	
9	0	0	0	0	515	612	
10	0	0	0	0	516	613	
11	0	0	0	0	515	612	
12	0	0	0	0	516	612	
13	0	0	0	0	516	613	
14	0	0	0	0	517	612	
15	0	0	0	0	518	613	
0	0	0	0	0	517	612	
1	0	0	0	0	515	612	
2	0	0	0	0	514	612	
3	0	0	0	0	514	612	
4	0	0	0	0	514	612	
5	0	0	0	0	513	612	
6	0	0	0	0	514	612	
7	0	0	0	0	514	612	
8	0	0	0	0	514	612	
9	0	0	0	0	515	612	
10	0	0	0	0	516	612	
11	0	0	0	0	516	612	
12	0	0	0	0	516	612	
13	0	0	0	0	516	612	
14	0	0	0	0	514	613	
15	0	0	0	0	513	612	
0	0	0	0	0	513	612	
1	0	0	0	0	513	613	
2	0	0	0	0	512	612	
3	0	0	0	0	511	612	
4	0	0	0	0	510	612	
5	0	0	0	0	508	612	
6	0	0	0	0	507	612	
7	0	0	0	0	507	612	
8	0	0	0	0	507	612	
9	0	0	0	0	507	612	
10	0	0	0	0	507	612	
11	0	0	0	0	507	612	
12	0	0	0	0	508	612	
13	0	0	0	0	509	612	
14	0	0	0	0	510	612	
15	0	0	0	0	510	612	
0	0	0	0	0	510	612	
1	0	0	0	0	509	612	
2	0	0	0	0	509	612	
3	0	0	0	0	508	612	
4	0	0	0	0	508	612	
5	0	0	0	0	507	612	
6	0	0	0	0	507	612	
7	0	0	0	0	506	612	
8	0	0	0	0	505	612	
9	0	0	0	0	504	612	
10	0	0	0	0	505	612	
11	0	0	0	0	504	612	
12	0	0	0	0	504	612	
13	0	0	0	0	504	612	
14	0	0	0	0	503	612	
15	0	0	0	0	502	612	
0	0	0	0	0	501	612	
1	0	0	0	0	501	612	
2	0	0	0	0	500	612	
3	0	0	0	0	500	612	
4	0	0	0	0	501	612	
5	0	0	0	0	501	612	
6	0	0	0	0	501	612	
7	0	0	0	0	501	612	
8	0	0	0	0	501	612	
9	0	0	0	0	502	612	
10	0	0	0	0	502	612	
11	0	0	0	0	502	612	
12	0	0	0	0	501	612	
13	0	0	0	0	501	612	
14	0	0	0	0	501	612	
15	0	0	0	0	501	612	
0	0	0	0	0	503	612	
1	0	0	0	0	504	612	
2	0	0	0	0	503	612	
3	0	0	0	0	502	612	
4	0	0	0	0	502	611	
5	0	0	0	0	501	612	
6	0	0	0	0	501	612	
7	0	0	0	0	502	611	
8	0	0	0	0	502	612	
9	0	0	0	0	502	612	
10	0	0	0	0	503	612	
11	0	0	0	0	504	612	
12	0	0	0	0	504	612	
13	0	0	0	0	505	612	
14	0	0	0	0	505	611	
15	0	0	0	0	507	612	
0	0	0	0	0	506	612	
1	0	0	0	0	506	611	
2	0	0	0	0	505	611	
3	0	0	0	0	505	611	
4	0	0	0	0	504	611	
5	0	0	0	0	504	612	
6	0	0	0	0	504	612	
7	0	0	0	0	504	611	
8	0	0	0	0	505	611	
9	0	0	0	0	506	611	
10	0	0	0	0	507	611	
11	0	0	0	0	508	612	
12	0	0	0	0	509	611	
13	0	0	0	0	509	611	
14	0	0	0	0	510	612	
15	0	0	0	0	510	611	
0	0	0	0	0	511	611	
1	0	0	0	0	512	611	
2	0	0	0	0	513	611	
3	0	0	0	0	515	611	
4	0	0	0	0	514	611	
5	0	0	0	0	514	611	
6	0	0	0	0	515	611	
7	0	0	0	0	516	611	
8	0	0	0	0	517	611	
9	0	0	0	0	516	611	
10	0	0	0	0	515	611	
11	0	0	0	0	516	611	
12	0	0	0	0	516	611	
13	0	0	0	0	518	611	
14	0	0	0	0	518	611	
15	0	0	0	0	519	611	
0	0	0	0	0	521	611	
1	0	0	0	0	522	611	
2	0	0	0	0	525	611	
3	0	0	0	0	527	611	
4	0	0	0	0	527	611	
5	0	0	0	0	528	611	
6	0	0	0	0	529	611	
7	0	0	0	0	530	611	
8	0	0	0	0	531	611	
9	0	0	0	0	531	611	
10	0	0	0	0	531	611	
11	0	0	0	0	531	611	
12	0	0	0	0	531	611	
13	0	0	0	0	531	611	
14	0	0	0	0	531	611	
15	0	0	0	0	531	611	
0	0	0	0	0	530	611	
1	0	0	0	0	530	611	
2	0	0	0	0	529	611	
3	0	0	0	0	528	611	
4	0	0	0	0	527	611	
5	0	0	0	0	525	611	
6	0	0	0	0	524	611	
7	0	0	0	0	523	611	
8	0	0	0	0	521	611	
9	0	0	0	0	521	611	
10	0	0	0	0	521	611	
11	0	0	0	0	521	611	
12	0	0	0	0	519	611	
13	0	0	0	0	520	611	
14	0	0	0	0	519	611	
15	0	0	0	0	519	611	
0	0	0	0	0	519	611	
1	0	0	0	0	518	611	
2	0	0	0	0	517	611	
3	0	0	0	0	516	611	
4	0	0	0	0	515	611	
5	0	0	0	0	513	611	
6	0	0	0	0	510	611	
7	0	0	0	0	508	611	
8	0	0	0	0	505	611	
9	0	0	0	0	504	611	
10	0	0	0	0	504	611	
11	0	0	0	0	503	611	
12	0	0	0	0	502	611	
13	0	0	0	0	502	611	
14	0	0	0	0	502	611	
15	0	0	0	0	502	611	
0	0	0	0	0	502	611	
1	0	0	0	0	501	611	
2	0	0	0	0	500	611	
3	0	0	0	0	499	611	
4	0	0	0	0	499	611	
5	0	0	0	0	497	611	
6	0	0	0	0	496	611	
7	0	0	0	0	497	611	
8	0	0	0	0	497	611	
9	0	0	0	0	497	611	
10	0	0	0	0	497	611	
11	0	0	0	0	497	611	
12	0	0	0	0	497	611	
13	0	0	0	0	498	611	
14	0	0	0	0	497	611	
15	0	0	0	0	497	611	
0	0	0	0	0	498	611	
1	0	0	0	0	498	611	
2	0	0	0	0	498	611	
3	0	0	0	0	500	611	
4	0	0	0	0	501	611	
5	0	0	0	0	502	611	
6	0	0	0	0	501	611	
7	0	0	0	0	500	610	
8	0	0	0	0	501	611	
9	0	0	0	0	500	610	
10	0	0	0	0	502	611	
11	0	0	0	0	503	611	
12	0	0	0	0	503	611	
13	0	0	0	0	504	611	
14	0	0	0	0	505	611	
15	0	0	0	0	506	611	
0	0	0	0	0	508	611	
1	0	0	0	0	508	610	
2	0	0	0	0	508	611	
3	0	0	0	0	508	610	
4	0	0	0	0	509	610	
5	0	0	0	0	512	611	
6	0	0	0	0	512	610	
7	0	0	0	0	513	611	
8	0	0	0	0	513	611	
9	0	0	0	0	513	610	
10	0	0	0	0	513	611	
11	0	0	0	0	513	610	
12	0	0	0	0	513	610	
13	0	0	0	0	515	611	
14	0	0	0	0	515	610	
15	0	0	0	0	516	610	
0	0	0	0	0	517	610	
1	0	0	0	0	518	611	
2	0	0	0	0	519	611	
3	0	0	0	0	520	610	
4	0	0	0	0	521	610	
5	0	0	0	0	522	610	
6	0	0	0	0	524	610	
7	0	0	0	0	526	610	
8	0	0	0	0	530	610	
9	0	0	0	0	533	610	
10	0	0	0	0	536	610	
11	0	0	0	0	541	610	
12	0	0	0	0	546	610	
13	0	0	0	0	551	610	
14	0	0	0	0	555	610	
15	0	0	0	0	558	610	
0	0	0	0	0	561	610	
1	0	0	0	0	565	610	
2	0	0	0	0	569	610	
3	0	0	0	0	574	610	
4	0	0	0	0	579	610	
5	0	0	0	0	583	610	
6	0	0	0	0	586	610	
7	0	0	0	0	589	610	
8	0	0	0	0	591	610	
9	0	0	0	0	592	610	
10	0	0	0	0	595	610	
11	0	0	0	0	596	610	
12	0	0	0	0	596	610	
13	0	0	0	0	595	610	
14	0	0	0	0	591	610	
15	0	0	0	0	589	610	
0	0	0	0	0	584	610	
1	0	0	0	0	578	610	
2	0	0	0	0	571	610	
3	0	0	0	0	561	610	
4	0	0	0	0	549	610	
5	0	0	0	0	537	610	
6	0	0	0	0	525	610	
7	0	0	0	0	512	610	
8	0	0	0	0	498	610	
9	0	0	0	0	483	609	
10	0	0	0	0	469	610	
11	0	0	0	0	456	610	
12	0	0	0	0	444	610	
13	0	0	0	0	431	609	
14	0	0	0	0	419	610	
15	0	0	0	0	410	610	
0	0	0	0	0	400	610	
1	0	0	0	0	393	610	
2	0	0	0	0	389	609	
3	0	0	0	0	387	609	
4	0	0	0	0	388	610	
5	0	0	0	0	391	610	
6	0	0	0	0	395	610	
7	0	0	0	0	400	609	
8	0	0	0	0	405	610	
9	0	0	0	0	408	610	
10	0	0	0	0	414	609	
11	0	0	0	0	419	610	
12	0	0	0	0	424	609	
13	0	0	0	0	430	609	
14	0	0	0	0	435	610	
15	0	0	0	0	440	609	
0	0	0	0	0	444	609	
1	0	0	0	0	448	609	
2	0	0	0	0	452	609	
3	0	0	0	0	455	609	
4	0	0	0	0	460	609	
5	0	0	0	0	465	610	
6	0	0	0	0	469	609	
7	0	0	0	0	473	609	
8	0	0	0	0	476	609	
9	0	0	0	0	479	609	
10	0	0	0	0	481	609	
11	0	0	0	0	483	609	
12	0	0	0	0	485	610	
13	0	0	0	0	486	609	
14	0	0	0	0	488	609	
15	0	0	0	0	489	609	
0	0	0	0	0	491	609	
1	0	0	0	0	494	610	
2	0	0	0	0	496	609	
3	0	0	0	0	498	609	
4	0	0	0	0	501	609	
5	0	0	0	0	504	609	
6	0	0	0	0	506	609	
7	0	0	0	0	509	609	
8	0	0	0	0	512	609	
9	0	0	0	0	514	609	
10	0	0	0	0	515	609	
11	0	0	0	0	517	609	
12	0	0	0	0	518	609	
13	0	0	0	0	519	609	
14	0	0	0	0	518	609	
15	0	0	0	0	516	609	
0	0	0	0	0	514	609	
1	0	0	0	0	511	609	
2	0	0	0	0	510	609	
3	0	0	0	0	511	609	
4	0	0	0	0	512	609	
5	0	0	0	0	514	609	
6	0	0	0	0	515	609	
7	0	0	0	0	515	609	
8	0	0	0	0	516	609	
9	0	0	0	0	517	609	
10	0	0	0	0	518	609	
11	0	0	0	0	518	609	
12	0	0	0	0	518	609	
13	0	0	0	0	519	609	
14	0	0	0	0	519	609	
15	0	0	0	0	519	609	
0	0	0	0	0	518	609	
1	0	0	0	0	519	609	
2	0	0	0	0	519	609	
3	0	0	0	0	519	609	
4	0	0	0	0	520	609	
5	0	0	0	0	521	609	
6	0	0	0	0	522	609	
7	0	0	0	0	523	609	
8	0	0	0	0	524	609	
9	0	0	0	0	524	609	
10	0	0	0	0	524	609	
11	0	0	0	0	526	609	
12	0	0	0	0	526	609	
13	0	0	0	0	527	609	
14	0	0	0	0	528	609	
15	0	0	0	0	529	609	
0	0	0	0	0	530	609	
1	0	0	0	0	531	609	
2	0	0	0	0	531	608	
3	0	0	0	0	534	609	
4	0	0	0	0	535	609	
5	0	0	0	0	536	609	
6	0	0	0	0	536	609	
7	0	0	0	0	537	609	
8	0	0	0	0	538	609	
9	0	0	0	0	539	609	
10	0	0	0	0	541	609	
11	0	0	0	0	542	609	
12	0	0	0	0	542	609	
13	0	0	0	0	543	609	
14	0	0	0	0	543	609	
15	0	0	0	0	543	609	
0	0	0	0	0	543	609	
1	0	0	0	0	543	608	
2	0	0	0	0	543	609	
3	0	0	0	0	544	609	
4	0	0	0	0	545	609	
5	0	0	0	0	546	609	
6	0	0	0	0	547	608	
7	0	0	0	0	547	608	
8	0	0	0	0	547	608	
9	0	0	0	0	547	608	
10	0	0	0	0	546	608	
11	0	0	0	0	544	608	
12	0	0	0	0	543	608	
13	0	0	0	0	542	608	
14	0	0	0	0	541	608	
15	0	0	0	0	542	608	
0	0	0	0	0	542	608	
1	0	0	0	0	542	609	
2	0	0	0	0	540	608	
3	0	0	0	0	540	608	
4	0	0	0	0	540	608	
5	0	0	0	0	540	608	
6	0	0	0	0	540	608	
7	0	0	0	0	539	608	
8	0	0	0	0	538	608	
9	0	0	0	0	538	608	
10	0	0	0	0	538	608	
11	0	0	0	0	537	608	
12	0	0	0	0	537	608	
13	0	0	0	0	536	608	
14	0	0	0	0	535	608	
15	0	0	0	0	535	608	
0	0	0	0	0	536	608	
1	0	0	0	0	537	608	
2	0	0	0	0	539	608	
3	0	0	0	0	540	608	
4	0	0	0	0	540	608	
5	0	0	0	0	542	608	
6	0	0	0	0	542	608	
7	0	0	0	0	541	608	
8	0	0	0	0	540	608	
9	0	0	0	0	539	608	
10	0	0	0	0	538	608	
11	0	0	0	0	538	608	
12	0	0	0	0	539	608	
13	0	0	0	0	540	608	
14	0	0	0	0	540	608	
15	0	0	0	0	541	608	
0	0	0	0	0	542	608	
1	0	0	0	0	541	608	
2	0	0	0	0	540	608	
3	0	0	0	0	540	608	
4	0	0	0	0	541	608	
5	0	0	0	0	542	608	
6	0	0	0	0	541	608	
7	0	0	0	0	540	608	
8	0	0	0	0	539	608	
9	0	0	0	0	539	608	
10	0	0	0	0	540	608	
11	0	0	0	0	540	608	
12	0	0	0	0	541	608	
13	0	0	0	0	541	608	
14	0	0	0	0	541	608	
15	0	0	0	0	542	608	
0	0	0	0	0	542	608	
1	0	0	0	0	542	608	
2	0	0	0	0	542	608	
3	0	0	0	0	543	608	
4	0	0	0	0	543	608	
5	0	0	0	0	543	608	
6	0	0	0	0	545	608	
7	0	0	0	0	546	608	
8	0	0	0	0	548	608	
9	0	0	0	0	548	608	
10	0	0	0	0	548	608	
11	0	0	0	0	549	608	
12	0	0	0	0	548	608	
13	0	0	0	0	549	608	
14	0	0	0	0	548	608	
15	0	0	0	0	548	608	
0	0	0	0	0	547	608	
1	0	0	0	0	547	608	
2	0	0	0	0	546	608	
3	0	0	0	0	545	608	
4	0	0	0	0	545	608	
5	0	0	0	0	545	608	
6	0	0	0	0	543	608	
7	0	0	0	0	544	608	
8	0	0	0	0	543	608	
9	0	0	0	0	542	608	
10	0	0	0	0	542	608	
11	0	0	0	0	542	608	
12	0	0	0	0	543	608	
13	0	0	0	0	542	608	
14	0	0	0	0	542	608	
15	0	0	0	0	542	608	
0	0	0	0	0	541	608	
1	0	0	0	0	540	608	
2	0	0	0	0	540	608	
3	0	0	0	0	539	608	
4	0	0	0	0	539	608	
5	0	0	0	0	539	607	
6	0	0	0	0	539	607	
7	0	0	0	0	539	608	
8	0	0	0	0	539	608	
9	0	0	0	0	538	608	
10	0	0	0	0	536	607	
11	0	0	0	0	536	608	
12	0	0	0	0	535	608	
13	0	0	0	0	535	607	
14	0	0	0	0	534	608	
15	0	0	0	0	532	607	
0	0	0	0	0	529	608	
1	0	0	0	0	526	608	
2	0	0	0	0	524	608	
3	0	0	0	0	520	607	
4	0	0	0	0	518	607	
5	0	0	0	0	515	608	
6	0	0	0	0	511	607	
7	0	0	0	0	509	607	
8	0	0	0	0	507	608	
9	0	0	0	0	504	607	
10	0	0	0	0	504	608	
11	0	0	0	0	501	607	
12	0	0	0	0	499	607	
13	0	0	0	0	497	608	
14	0	0	0	0	495	607	
15	0	0	0	0	494	607	
0	0	0	0	0	492	607	
1	0	0	0	0	492	607	
2	0	0	0	0	490	607	
3	0	0	0	0	487	607	
4	0	0	0	0	486	607	
5	0	0	0	0	484	607	
6	0	0	0	0	482	607	
7	0	0	0	0	480	607	
8	0	0	0	0	479	607	
9	0	0	0	0	478	607	
10	0	0	0	0	477	607	
11	0	0	0	0	476	607	
12	0	0	0	0	475	607	
13	0	0	0	0	473	607	
14	0	0	0	0	472	607	
15	0	0	0	0	471	607	
0	0	0	0	0	469	607	
1	0	0	0	0	468	607	
2	0	0	0	0	467	607	
3	0	0	0	0	468	607	
4	0	0	0	0	467	607	
5	0	0	0	0	466	607	
6	0	0	0	0	465	607	
7	0	0	0	0	464	607	
8	0	0	0	0	463	607	
9	0	0	0	0	461	607	
10	0	0	0	0	460	607	
11	0	0	0	0	462	607	
12	0	0	0	0	462	607	
13	0	0	0	0	463	607	
14	0	0	0	0	462	607	
15	0	0	0	0	462	607	
0	0	0	0	0	463	607	
1	0	0	0	0	463	607	
2	0	0	0	0	465	607	
3	0	0	0	0	465	607	
4	0	0	0	0	465	607	
5	0	0	0	0	464	607	
6	0	0	0	0	464	607	
7	0	0	0	0	466	607	
8	0	0	0	0	467	607	
9	0	0	0	0	467	607	
10	0	0	0	0	468	607	
11	0	0	0	0	468	607	
12	0	0	0	0	469	607	
13	0	0	0	0	470	607	
14	0	0	0	0	471	607	
15	0	0	0	0	472	607	
0	0	0	0	0	473	607	
1	0	0	0	0	475	607	
2	0	0	0	0	476	607	
3	0	0	0	0	477	607	
4	0	0	0	0	478	607	
5	0	0	0	0	479	607	
6	0	0	0	0	480	607	
7	0	0	0	0	479	607	
8	0	0	0	0	479	607	
9	0	0	0	0	480	607	
10	0	0	0	0	481	606	
11	0	0	0	0	481	607	
12	0	0	0	0	481	606	
13	0	0	0	0	483	606	
14	0	0	0	0	483	607	
15	0	0	0	0	484	606	
0	0	0	0	0	484	607	
1	0	0	0	0	484	607	
2	0	0	0	0	485	606	
3	0	0	0	0	486	607	
4	0	0	0	0	486	606	
5	0	0	0	0	486	607	
6	0	0	0	0	486	606	
7	0	0	0	0	485	607	
8	0	0	0	0	484	607	
9	0	0	0	0	484	606	
10	0	0	0	0	484	606	
11	0	0	0	0	484	606	
12	0	0	0	0	484	607	
13	0	0	0	0	486	606	
14	0	0	0	0	486	606	
15	0	0	0	0	485	607	
0	0	0	0	0	486	606	
1	0	0	0	0	486	606	
2	0	0	0	0	486	606	
3	0	0	0	0	486	606	
4	0	0	0	0	486	607	
5	0	0	0	0	484	606	
6	0	0	0	0	484	606	
7	0	0	0	0	484	606	
8	0	0	0	0	484	606	
9	0	0	0	0	484	606	
10	0	0	0	0	485	606	
11	0	0	0	0	485	606	
12	0	0	0	0	484	606	
13	0	0	0	0	485	606	
14	0	0	0	0	486	606	
15	0	0	0	0	485	606	
0	0	0	0	0	483	606	
1	0	0	0	0	481	606	
2	0	0	0	0	479	606	
3	0	0	0	0	478	606	
4	0	0	0	0	476	606	
5	0	0	0	0	474	606	
6	0	0	0	0	472	606	
7	0	0	0	0	472	606	
8	0	0	0	0	472	606	
9	0	0	0	0	471	606	
10	0	0	0	0	471	606	
11	0	0	0	0	471	606	
12	0	0	0	0	471	606	
13	0	0	0	0	470	606	
14	0	0	0	0	469	606	
15	0	0	0	0	468	606	
0	0	0	0	0	467	606	
1	0	0	0	0	467	606	
2	0	0	0	0	467	606	
3	0	0	0	0	467	606	
4	0	0	0	0	466	606	
5	0	0	0	0	466	606	
6	0	0	0	0	466	606	
7	0	0	0	0	467	606	
8	0	0	0	0	467	606	
9	0	0	0	0	469	606	
10	0	0	0	0	470	606	
11	0	0	0	0	470	606	
12	0	0	0	0	471	606	
13	0	0	0	0	471	606	
14	0	0	0	0	473	606	
15	0	0	0	0	474	606	
0	0	0	0	0	475	606	
1	0	0	0	0	476	606	
2	0	0	0	0	476	606	
3	0	0	0	0	478	606	
4	0	0	0	0	479	606	
5	0	0	0	0	480	606	
6	0	0	0	0	481	606	
7	0	0	0	0	482	606	
8	0	0	0	0	482	606	
9	0	0	0	0	482	606	
10	0	0	0	0	483	606	
11	0	0	0	0	484	606	
12	0	0	0	0	484	606	
13	0	0	0	0	485	606	
14	0	0	0	0	485	606	
15	0	0	0	0	487	606	
0	0	0	0	0	489	606	
1	0	0	0	0	492	606	
2	0	0	0	0	493	606	
3	0	0	0	0	494	606	
4	0	0	0	0	495	606	
5	0	0	0	0	496	606	
6	0	0	0	0	496	606	
7	0	0	0	0	497	606	
8	0	0	0	0	499	606	
9	0	0	0	0	500	606	
10	0	0	0	0	500	605	
11	0	0	0	0	501	606	
12	0	0	0	0	502	606	
13	0	0	0	0	504	606	
14	0	0	0	0	505	606	
15	0	0	0	0	506	606	
0	0	0	0	0	507	606	
1	0	0	0	0	508	605	
2	0	0	0	0	509	606	
3	0	0	0	0	509	605	
4	0	0	0	0	511	606	
5	0	0	0	0	510	606	
6	0	0	0	0	510	606	
7	0	0	0	0	510	605	
8	0	0	0	0	510	605	
9	0	0	0	0	510	606	
10	0	0	0	0	508	606	
11	0	0	0	0	508	606	
12	0	0	0	0	508	605	
13	0	0	0	0	508	605	
14	0	0	0	0	507	606	
15	0	0	0	0	507	605	
0	0	0	0	0	507	605	
1	0	0	0	0	507	605	
2	0	0	0	0	507	605	
3	0	0	0	0	507	605	
4	0	0	0	0	507	605	
5	0	0	0	0	507	605	
6	0	0	0	0	508	605	
7	0	0	0	0	508	605	
8	0	0	0	0	508	606	
9	0	0	0	0	508	605	
10	0	0	0	0	508	605	
11	0	0	0	0	507	605	
12	0	0	0	0	507	605	
13	0	0	0	0	507	605	
14	0	0	0	0	506	605	
15	0	0	0	0	506	605	
0	0	0	0	0	506	605	
1	0	0	0	0	507	605	
2	0	0	0	0	508	605	
3	0	0	0	0	509	605	
4	0	0	0	0	510	605	
5	0	0	0	0	511	605	
6	0	0	0	0	511	605	
7	0	0	0	0	511	605	
8	0	0	0	0	511	605	
9	0	0	0	0	511	605	
10	0	0	0	0	510	605	
11	0	0	0	0	508	605	
12	0	0	0	0	508	605	
13	0	0	0	0	508	605	
14	0	0	0	0	508	605	
15	0	0	0	0	509	605	
0	0	0	0	0	510	605	
1	0	0	0	0	510	605	
2	0	0	0	0	511	605	
3	0	0	0	0	510	605	
4	0	0	0	0	510	605	
5	0	0	0	0	511	605	
6	0	0	0	0	510	605	
7	0	0	0	0	510	605	
8	0	0	0	0	509	605	
9	0	0	0	0	509	605	
10	0	0	0	0	509	605	
11	0	0	0	0	509	605	
12	0	0	0	0	509	605	
13	0	0	0	0	510	605	
14	0	0	0	0	511	605	
15	0	0	0	0	512	604	
0	0	0	0	0	514	605	
1	0	0	0	0	515	605	
2	0	0	0	0	515	605	
3	0	0	0	0	515	605	
4	0	0	0	0	516	605	
5	0	0	0	0	516	604	
6	0	0	0	0	516	605	
7	0	0	0	0	516	605	
8	0	0	0	0	515	605	
9	0	0	0	0	516	604	
10	0	0	0	0	516	604	
11	0	0	0	0	516	605	
12	0	0	0	0	517	605	
13	0	0	0	0	518	605	
14	0	0	0	0	518	604	
15	0	0	0	0	518	605	
0	0	0	0	0	518	605	
1	0	0	0	0	517	604	
2	0	0	0	0	517	605	
3	0	0	0	0	517	604	
4	0	0	0	0	517	605	
5	0	0	0	0	516	604	
6	0	0	0	0	516	604	
7	0	0	0	0	515	605	
8	0	0	0	0	515	604	
9	0	0	0	0	515	604	
10	0	0	0	0	516	605	
11	0	0	0	0	517	604	
12	0	0	0	0	517	604	
13	0	0	0	0	517	604	
14	0	0	0	0	518	605	
15	0	0	0	0	519	604	
0	0	0	0	0	520	604	
1	0	0	0	0	520	604	
2	0	0	0	0	521	604	
3	0	0	0	0	521	604	
4	0	0	0	0	522	604	
5	0	0	0	0	523	604	
6	0	0	0	0	524	605	
7	0	0	0	0	523	604	
8	0	0	0	0	523	604	
9	0	0	0	0	522	604	
10	0	0	0	0	522	604	
11	0	0	0	0	522	604	
12	0	0	0	0	521	604	
13	0	0	0	0	521	604	
14	0	0	0	0	520	604	
15	0	0	0	0	520	604	
0	0	0	0	0	520	604	
1	0	0	0	0	520	604	
2	0	0	0	0	520	604	
3	0	0	0	0	518	604	
4	0	0	0	0	517	604	
5	0	0	0	0	516	604	
6	0	0	0	0	516	604	
7	0	0	0	0	515	604	
8	0	0	0	0	514	604	
9	0	0	0	0	515	604	
10	0	0	0	0	514	604	
11	0	0	0	0	513	604	
12	0	0	0	0	513	604	
13	0	0	0	0	512	604	
14	0	0	0	0	511	604	
15	0	0	0	0	510	604	
0	0	0	0	0	509	604	
1	0	0	0	0	509	604	
2	0	0	0	0	508	604	
3	0	0	0	0	507	604	
4	0	0	0	0	506	604	
5	0	0	0	0	506	604	
6	0	0	0	0	505	604	
7	0	0	0	0	505	604	
8	0	0	0	0	504	604	
9	0	0	0	0	503	604	
10	0	0	0	0	502	604	
11	0	0	0	0	502	604	
12	0	0	0	0	500	604	
13	0	0	0	0	500	604	
14	0	0	0	0	499	604	
15	0	0	0	0	498	604	
0	0	0	0	0	498	604	
1	0	0	0	0	497	604	
2	0	0	0	0	497	604	
3	0	0	0	0	497	604	
4	0	0	0	0	498	604	
5	0	0	0	0	499	604	
6	0	0	0	0	498	604	
7	0	0	0	0	498	604	
8	0	0	0	0	498	604	
9	0	0	0	0	498	604	
10	0	0	0	0	499	604	
11	0	0	0	0	499	604	
12	0	0	0	0	499	604	
13	0	0	0	0	499	604	
14	0	0	0	0	500	604	
15	0	0	0	0	500	604	
0	0	0	0	0	500	604	
1	0	0	0	0	501	604	
2	0	0	0	0	501	604	
3	0	0	0	0	501	604	
4	0	0	0	0	500	604	
5	0	0	0	0	500	604	
6	0	0	0	0	501	604	
7	0	0	0	0	500	604	
8	0	0	0	0	501	604	
9	0	0	0	0	502	604	
10	0	0	0	0	503	604	
11	0	0	0	0	502	604	
12	0	0	0	0	502	604	
13	0	0	0	0	502	604	
14	0	0	0	0	503	604	
15	0	0	0	0	504	604	
0	0	0	0	0	504	604	
1	0	0	0	0	505	604	
2	0	0	0	0	506	604	
3	0	0	0	0	507	604	
4	0	0	0	0	508	604	
5	0	0	0	0	509	604	
6	0	0	0	0	510	604	
7	0	0	0	0	511	604	
8	0	0	0	0	510	604	
9	0	0	0	0	510	604	
10	0	0	0	0	510	604	
11	0	0	0	0	510	604	
12	0	0	0	0	511	604	
13	0	0	0	0	511	604	
14	0	0	0	0	511	604	
15	0	0	0	0	511	604	
0	0	0	0	0	512	604	
1	0	0	0	0	512	604	
2	0	0	0	0	513	604	
3	0	0	0	0	514	604	
4	0	0	0	0	514	604	
5	0	0	0	0	513	604	
6	0	0	0	0	512	604	
7	0	0	0	0	513	604	
8	0	0	0	0	513	604	
9	0	0	0	0	513	604	
10	0	0	0	0	513	604	
11	0	0	0	0	513	604	
12	0	0	0	0	515	604	
13	0	0	0	0	515	604	
14	0	0	0	0	515	604	
15	0	0	0	0	515	604	
0	0	0	0	0	514	604	
1	0	0	0	0	513	604	
2	0	0	0	0	514	604	
3	0	0	0	0	514	604	
4	0	0	0	0	515	604	
5	0	0	0	0	516	604	
6	0	0	0	0	517	604	
7	0	0	0	0	518	603	
8	0	0	0	0	519	604	
9	0	0	0	0	521	604	
10	0	0	0	0	520	604	
11	0	0	0	0	521	604	
12	0	0	0	0	521	604	
13	0	0	0	0	520	604	
14	0	0	0	0	519	604	
15	0	0	0	0	518	604	
0	0	0	0	0	519	604	
1	0	0	0	0	518	604	
2	0	0	0	0	517	604	
3	0	0	0	0	516	603	
4	0	0	0	0	515	603	
5	0	0	0	0	515	604	
6	0	0	0	0	516	604	
7	0	0	0	0	516	603	
8	0	0	0	0	515	604	
9	0	0	0	0	515	603	
10	0	0	0	0	515	604	
11	0	0	0	0	515	603	
12	0	0	0	0	515	603	
13	0	0	0	0	515	604	
14	0	0	0	0	514	603	
15	0	0	0	0	513	604	
0	0	0	0	0	513	603	
1	0	0	0	0	513	603	
2	0	0	0	0	514	603	
3	0	0	0	0	513	603	
4	0	0	0	0	513	604	
5	0	0	0	0	512	603	
6	0	0	0	0	512	604	
7	0	0	0	0	512	604	
8	0	0	0	0	511	603	
9	0	0	0	0	511	603	
10	0	0	0	0	511	603	
11	0	0	0	0	511	603	
12	0	0	0	0	511	603	
13	0	0	0	0	510	603	
14	0	0	0	0	510	604	
15	0	0	0	0	510	603	
0	0	0	0	0	509	603	
1	0	0	0	0	508	603	
2	0	0	0	0	508	603	
3	0	0	0	0	508	603	
4	0	0	0	0	506	603	
5	0	0	0	0	506	603	
6	0	0	0	0	506	603	
7	0	0	0	0	506	603	
8	0	0	0	0	506	603	
9	0	0	0	0	505	603	
10	0	0	0	0	505	603	
11	0	0	0	0	506	603	
12	0	0	0	0	507	603	
13	0	0	0	0	508	603	
14	0	0	0	0	508	603	
15	0	0	0	0	508	603	
0	0	0	0	0	510	603	
1	0	0	0	0	512	603	
2	0	0	0	0	514	603	
3	0	0	0	0	514	603	
4	0	0	0	0	515	603	
5	0	0	0	0	515	603	
6	0	0	0	0	516	603	
7	0	0	0	0	518	603	
8	0	0	0	0	518	603	
9	0	0	0	0	518	603	
10	0	0	0	0	518	603	
11	0	0	0	0	516	603	
12	0	0	0	0	517	603	
13	0	0	0	0	517	603	
14	0	0	0	0	518	603	
15	0	0	0	0	519	603	
0	0	0	0	0	519	603	
1	0	0	0	0	519	603	
2	0	0	0	0	519	603	
3	0	0	0	0	518	603	
4	0	0	0	0	517	603	
5	0	0	0	0	517	603	
6	0	0	0	0	516	603	
7	0	0	0	0	517	603	
8	0	0	0	0	516	603	
9	0	0	0	0	516	603	
10	0	0	0	0	516	603	
11	0	0	0	0	517	603	
12	0	0	0	0	516	603	
13	0	0	0	0	517	603	
14	0	0	0	0	517	603	
15	0	0	0	0	517	603	
0	0	0	0	0	517	603	
1	0	0	0	0	516	603	
2	0	0	0	0	515	603	
3	0	0	0	0	514	603	
4	0	0	0	0	511	603	
5	0	0	0	0	510	603	
6	0	0	0	0	506	603	
7	0	0	0	0	504	603	
8	0	0	0	0	503	603	
9	0	0	0	0	501	603	
10	0	0	0	0	500	603	
11	0	0	0	0	499	603	
12	0	0	0	0	499	603	
13	0	0	0	0	497	603	
14	0	0	0	0	496	603	
15	0	0	0	0	498	603	
0	0	0	0	0	499	603	
1	0	0	0	0	499	603	
2	0	0	0	0	499	603	
3	0	0	0	0	499	603	
4	0	0	0	0	500	603	
5	0	0	0	0	500	603	
6	0	0	0	0	501	603	
7	0	0	0	0	501	603	
8	0	0	0	0	502	603	
9	0	0	0	0	504	603	
10	0	0	0	0	505	603	
11	0	0	0	0	506	603	
12	0	0	0	0	508	603	
13	0	0	0	0	508	603	
14	0	0	0	0	510	603	
15	0	0	0	0	509	603	
0	0	0	0	0	509	603	
1	0	0	0	0	509	603	
2	0	0	0	0	508	603	
3	0	0	0	0	508	603	
4	0	0	0	0	508	603	
5	0	0	0	0	508	603	
6	0	0	0	0	506	603	
7	0	0	0	0	504	602	
8	0	0	0	0	505	603	
9	0	0	0	0	505	603	
10	0	0	0	0	506	603	
11	0	0	0	0	506	603	
12	0	0	0	0	505	602	
13	0	0	0	0	505	603	
14	0	0	0	0	504	603	
15	0	0	0	0	504	603	
0	0	0	0	0	504	603	
1	0	0	0	0	504	602	
2	0	0	0	0	504	603	
3	0	0	0	0	503	603	
4	0	0	0	0	503	603	
5	0	0	0	0	503	603	
6	0	0	0	0	502	602	
7	0	0	0	0	502	603	
8	0	0	0	0	502	603	
9	0	0	0	0	502	603	
10	0	0	0	0	502	602	
11	0	0	0	0	501	602	
12	0	0	0	0	502	603	
13	0	0	0	0	502	603	
14	0	0	0	0	504	603	
15	0	0	0	0	504	602	
0	0	0	0	0	505	602	
1	0	0	0	0	508	603	
2	0	0	0	0	508	603	
3	0	0	0	0	509	602	
4	0	0	0	0	510	602	
5	0	0	0	0	510	602	
6	0	0	0	0	511	603	
7	0	0	0	0	512	602	
8	0	0	0	0	515	602	
9	0	0	0	0	517	602	
10	0	0	0	0	520	602	
11	0	0	0	0	525	603	
12	0	0	0	0	529	602	
13	0	0	0	0	533	602	
14	0	0	0	0	538	602	
15	0	0	0	0	543	602	
0	0	0	0	0	548	602	
1	0	0	0	0	553	602	
2	0	0	0	0	560	602	
3	0	0	0	0	564	602	
4	0	0	0	0	567	602	
5	0	0	0	0	571	602	
6	0	0	0	0	575	602	
7	0	0	0	0	578	602	
8	0	0	0	0	580	602	
9	0	0	0	0	582	602	
10	0	0	0	0	583	602	
11	0	0	0	0	583	602	
12	0	0	0	0	581	602	
13	0	0	0	0	579	602	
14	0	0	0	0	577	602	
15	0	0	0	0	573	602	
0	0	0	0	0	568	602	
1	0	0	0	0	560	602	
2	0	0	0	0	551	602	
3	0	0	0	0	541	602	
4	0	0	0	0	529	603	
5	0	0	0	0	515	602	
6	0	0	0	0	502	602	
7	0	0	0	0	488	602	
8	0	0	0	0	474	602	
9	0	0	0	0	461	602	
10	0	0	0	0	448	602	
11	0	0	0	0	435	602	
12	0	0	0	0	422	602	
13	0	0	0	0	408	602	
14	0	0	0	0	398	602	
15	0	0	0	0	389	602	
0	0	0	0	0	384	602	
1	0	0	0	0	382	602	
2	0	0	0	0	382	602	
3	0	0	0	0	384	602	
4	0	0	0	0	388	602	
5	0	0	0	0	393	602	
6	0	0	0	0	399	602	
7	0	0	0	0	405	602	
8	0	0	0	0	411	603	
9	0	0	0	0	416	602	
10	0	0	0	0	422	602	
11	0	0	0	0	428	602	
12	0	0	0	0	432	602	
13	0	0	0	0	437	602	
14	0	0	0	0	442	602	
15	0	0	0	0	448	602	
0	0	0	0	0	453	602	
1	0	0	0	0	458	602	
2	0	0	0	0	464	602	
3	0	0	0	0	468	602	
4	0	0	0	0	474	602	
5	0	0	0	0	479	602	
6	0	0	0	0	484	602	
7	0	0	0	0	488	602	
8	0	0	0	0	492	602	
9	0	0	0	0	495	602	
10	0	0	0	0	497	602	
11	0	0	0	0	499	602	
12	0	0	0	0	501	602	
13	0	0	0	0	504	602	
14	0	0	0	0	507	602	
15	0	0	0	0	509	602	
0	0	0	0	0	511	602	
1	0	0	0	0	513	602	
2	0	0	0	0	514	602	
3	0	0	0	0	516	602	
4	0	0	0	0	518	602	
5	0	0	0	0	518	602	
6	0	0	0	0	519	602	
7	0	0	0	0	521	602	
8	0	0	0	0	521	602	
9	0	0	0	0	521	602	
10	0	0	0	0	521	602	
11	0	0	0	0	522	602	
12	0	0	0	0	521	602	
13	0	0	0	0	521	602	
14	0	0	0	0	522	602	
15	0	0	0	0	522	602	
0	0	0	0	0	523	602	
1	0	0	0	0	522	602	
2	0	0	0	0	521	602	
3	0	0	0	0	521	602	
4	0	0	0	0	521	602	
5	0	0	0	0	521	602	
6	0	0	0	0	520	602	
7	0	0	0	0	520	602	
8	0	0	0	0	519	602	
9	0	0	0	0	519	602	
10	0	0	0	0	519	602	
11	0	0	0	0	520	602	
12	0	0	0	0	519	602	
13	0	0	0	0	520	602	
14	0	0	0	0	520	601	
15	0	0	0	0	521	602	
0	0	0	0	0	521	602	
1	0	0	0	0	522	602	
2	0	0	0	0	523	602	
3	0	0	0	0	523	601	
4	0	0	0	0	524	602	
5	0	0	0	0	525	602	
6	0	0	0	0	525	602	
7	0	0	0	0	526	602	
8	0	0	0	0	526	602	
9	0	0	0	0	526	602	
10	0	0	0	0	527	602	
11	0	0	0	0	528	601	
12	0	0	0	0	528	602	
13	0	0	0	0	529	601	
14	0	0	0	0	531	602	
15	0	0	0	0	531	602	
0	0	0	0	0	532	602	
1	0	0	0	0	533	602	
2	0	0	0	0	534	601	
3	0	0	0	0	535	602	
4	0	0	0	0	534	601	
5	0	0	0	0	534	601	
6	0	0	0	0	535	602	
7	0	0	0	0	534	601	
8	0	0	0	0	534	602	
9	0	0	0	0	533	602	
10	0	0	0	0	534	602	
11	0	0	0	0	534	601	
12	0	0	0	0	534	601	
13	0	0	0	0	535	602	
14	0	0	0	0	535	602	
15	0	0	0	0	536	601	
0	0	0	0	0	536	602	
1	0	0	0	0	536	601	
2	0	0	0	0	536	602	
3	0	0	0	0	536	602	
4	0	0	0	0	536	601	
5	0	0	0	0	536	602	
6	0	0	0	0	536	601	
7	0	0	0	0	536	602	
8	0	0	0	0	535	601	
9	0	0	0	0	534	601	
10	0	0	0	0	533	601	
11	0	0	0	0	532	601	
12	0	0	0	0	533	602	
13	0	0	0	0	533	602	
14	0	0	0	0	533	601	
15	0	0	0	0	532	602	
0	0	0	0	0	531	602	
1	0	0	0	0	531	602	
2	0	0	0	0	531	601	
3	0	0	0	0	531	601	
4	0	0	0	0	530	602	
5	0	0	0	0	530	601	
6	0	0	0	0	530	602	
7	0	0	0	0	529	601	
8	0	0	0	0	529	601	
9	0	0	0	0	530	602	
10	0	0	0	0	530	601	
11	0	0	0	0	530	602	
12	0	0	0	0	530	601	
13	0	0	0	0	530	602	
14	0	0	0	0	529	601	
15	0	0	0	0	529	601	
0	0	0	0	0	529	602	
1	0	0	0	0	529	602	
2	0	0	0	0	528	601	
3	0	0	0	0	528	601	
4	0	0	0	0	527	601	
5	0	0	0	0	528	602	
6	0	0	0	0	530	602	
7	0	0	0	0	531	601	
8	0	0	0	0	532	601	
9	0	0	0	0	532	601	
10	0	0	0	0	532	601	
11	0	0	0	0	532	602	
12	0	0	0	0	532	601	
13	0	0	0	0	531	601	
14	0	0	0	0	531	601	
15	0	0	0	0	532	602	
0	0	0	0	0	533	602	
1	0	0	0	0	535	601	
2	0	0	0	0	535	601	
3	0	0	0	0	536	601	
4	0	0	0	0	536	601	
5	0	0	0	0	537	601	
6	0	0	0	0	538	602	
7	0	0	0	0	538	602	
8	0	0	0	0	538	601	
9	0	0	0	0	538	601	
10	0	0	0	0	539	601	
11	0	0	0	0	540	601	
12	0	0	0	0	540	601	
13	0	0	0	0	541	601	
14	0	0	0	0	542	602	
15	0	0	0	0	542	602	
0	0	0	0	0	542	601	
1	0	0	0	0	542	601	
2	0	0	0	0	543	601	
3	0	0	0	0	543	601	
4	0	0	0	0	544	601	
5	0	0	0	0	545	601	
6	0	0	0	0	547	602	
7	0	0	0	0	547	601	
8	0	0	0	0	549	602	
9	0	0	0	0	550	601	
10	0	0	0	0	552	601	
11	0	0	0	0	554	601	
12	0	0	0	0	555	601	
13	0	0	0	0	556	602	
14	0	0	0	0	556	601	
15	0	0	0	0	557	601	
0	0	0	0	0	556	601	
1	0	0	0	0	555	601	
2	0	0	0	0	554	602	
3	0	0	0	0	553	601	
4	0	0	0	0	553	601	
5	0	0	0	0	554	601	
6	0	0	0	0	553	601	
7	0	0	0	0	553	602	
8	0	0	0	0	553	601	
9	0	0	0	0	555	601	
10	0	0	0	0	556	601	
11	0	0	0	0	557	601	
12	0	0	0	0	558	602	
13	0	0	0	0	558	602	
14	0	0	0	0	559	601	
15	0	0	0	0	560	601	
0	0	0	0	0	558	601	
1	0	0	0	0	559	601	
2	0	0	0	0	557	601	
3	0	0	0	0	556	601	
4	0	0	0	0	554	601	
5	0	0	0	0	552	601	
6	0	0	0	0	551	602	
7	0	0	0	0	549	602	
8	0	0	0	0	548	601	
9	0	0	0	0	547	601	
10	0	0	0	0	545	601	
11	0	0	0	0	545	601	
12	0	0	0	0	543	601	
13	0	0	0	0	542	601	
14	0	0	0	0	540	602	
15	0	0	0	0	540	601	
0	0	0	0	0	539	601	
1	0	0	0	0	537	601	
2	0	0	0	0	535	601	
3	0	0	0	0	533	601	
4	0	0	0	0	530	601	
5	0	0	0	0	528	602	
6	0	0	0	0	524	601	
7	0	0	0	0	520	601	
8	0	0	0	0	516	602	
9	0	0	0	0	512	601	
10	0	0	0	0	510	601	
11	0	0	0	0	507	601	
12	0	0	0	0	506	601	
13	0	0	0	0	504	601	
14	0	0	0	0	501	601	
15	0	0	0	0	499	602	
0	0	0	0	0	497	602	
1	0	0	0	0	496	601	
2	0	0	0	0	495	601	
3	0	0	0	0	493	601	
4	0	0	0	0	492	601	
5	0	0	0	0	490	601	
6	0	0	0	0	488	602	
7	0	0	0	0	487	601	
8	0	0	0	0	484	601	
9	0	0	0	0	483	602	
10	0	0	0	0	482	601	
11	0	0	0	0	481	601	
12	0	0	0	0	479	601	
13	0	0	0	0	477	601	
14	0	0	0	0	476	602	
15	0	0	0	0	474	602	
0	0	0	0	0	472	601	
1	0	0	0	0	470	602	
2	0	0	0	0	468	601	
3	0	0	0	0	467	602	
4	0	0	0	0	466	602	
5	0	0	0	0	465	601	
6	0	0	0	0	464	602	
7	0	0	0	0	464	601	
8	0	0	0	0	464	602	
9	0	0	0	0	463	601	
10	0	0	0	0	463	602	
11	0	0	0	0	462	601	
12	0	0	0	0	461	601	
13	0	0	0	0	461	602	
14	0	0	0	0	460	602	
15	0	0	0	0	460	602	
0	0	0	0	0	460	602	
1	0	0	0	0	462	601	
2	0	0	0	0	463	602	
3	0	0	0	0	463	601	
4	0	0	0	0	463	601	
5	0	0	0	0	462	602	
6	0	0	0	0	462	601	
7	0	0	0	0	462	602	
8	0	0	0	0	462	602	
9	0	0	0	0	462	602	
10	0	0	0	0	462	602	
11	0	0	0	0	462	601	
12	0	0	0	0	463	602	
13	0	0	0	0	464	601	
14	0	0	0	0	465	602	
15	0	0	0	0	465	601	
0	0	0	0	0	465	601	
1	0	0	0	0	466	602	
2	0	0	0	0	467	601	
3	0	0	0	0	467	602	
4	0	0	0	0	468	601	
5	0	0	0	0	470	601	
6	0	0	0	0	472	602	
7	0	0	0	0	472	601	
8	0	0	0	0	474	602	
9	0	0	0	0	476	602	
10	0	0	0	0	477	601	
11	0	0	0	0	479	602	
12	0	0	0	0	480	601	
13	0	0	0	0	481	601	
14	0	0	0	0	482	601	
15	0	0	0	0	482	601	
0	0	0	0	0	484	602	
1	0	0	0	0	484	602	
2	0	0	0	0	485	602	
3	0	0	0	0	486	601	
4	0	0	0	0	486	601	
5	0	0	0	0	487	602	
6	0	0	0	0	487	601	
7	0	0	0	0	489	601	
8	0	0	0	0	489	602	
9	0	0	0	0	490	601	
10	0	0	0	0	492	602	
11	0	0	0	0	493	602	
12	0	0	0	0	495	601	
13	0	0	0	0	497	602	
14	0	0	0	0	498	601	
15	0	0	0	0	499	602	
0	0	0	0	0	499	601	
1	0	0	0	0	499	601	
2	0	0	0	0	500	602	
3	0	0	0	0	500	601	
4	0	0	0	0	501	602	
5	0	0	0	0	500	601	
6	0	0	0	0	501	602	
7	0	0	0	0	501	602	
8	0	0	0	0	501	601	
9	0	0	0	0	502	602	
10	0	0	0	0	502	601	
11	0	0	0	0	502	602	
12	0	0	0	0	502	601	
13	0	0	0	0	501	601	
14	0	0	0	0	502	602	
15	0	0	0	0	503	602	
0	0	0	0	0	504	601	
1	0	0	0	0	504	601	
2	0	0	0	0	505	601	
3	0	0	0	0	505	602	
4	0	0	0	0	504	602	
5	0	0	0	0	504	602	
6	0	0	0	0	504	601	
7	0	0	0	0	504	601	
8	0	0	0	0	504	602	
9	0	0	0	0	502	602	
10	0	0	0	0	501	602	
11	0	0	0	0	499	601	
12	0	0	0	0	499	601	
13	0	0	0	0	499	602	
14	0	0	0	0	498	602	
15	0	0	0	0	496	602	
0	0	0	0	0	496	601	
1	0	0	0	0	495	601	
2	0	0	0	0	495	602	
3	0	0	0	0	494	602	
4	0	0	0	0	493	602	
5	0	0	0	0	492	602	
6	0	0	0	0	492	601	
7	0	0	0	0	492	602	
8	0	0	0	0	491	601	
9	0	0	0	0	491	602	
10	0	0	0	0	490	601	
11	0	0	0	0	489	601	
12	0	0	0	0	489	602	
13	0	0	0	0	489	602	
14	0	0	0	0	488	602	
15	0	0	0	0	487	602	
0	0	0	0	0	487	602	
1	0	0	0	0	487	602	
2	0	0	0	0	487	602	
3	0	0	0	0	487	602	
4	0	0	0	0	486	602	
5	0	0	0	0	485	601	
6	0	0	0	0	486	602	
7	0	0	0	0	486	602	
8	0	0	0	0	486	602	
9	0	0	0	0	487	602	
10	0	0	0	0	487	602	
11	0	0	0	0	487	601	
12	0	0	0	0	488	602	
13	0	0	0	0	489	602	
14	0	0	0	0	489	602	
15	0	0	0	0	489	601	
0	0	0	0	0	489	602	
1	0	0	0	0	490	602	
2	0	0	0	0	491	602	
3	0	0	0	0	491	602	
4	0	0	0	0	491	601	
5	0	0	0	0	492	602	
6	0	0	0	0	493	602	
7	0	0	0	0	493	602	
8	0	0	0	0	493	602	
9	0	0	0	0	493	602	
10	0	0	0	0	494	602	
11	0	0	0	0	494	602	
12	0	0	0	0	494	602	
13	0	0	0	0	494	602	
14	0	0	0	0	493	602	
15	0	0	0	0	493	602	
0	0	0	0	0	493	602	
1	0	0	0	0	494	602	
2	0	0	0	0	495	602	
3	0	0	0	0	496	601	
4	0	0	0	0	498	602	
5	0	0	0	0	499	602	
6	0	0	0	0	500	602	
7	0	0	0	0	500	602	
8	0	0	0	0	499	602	
9	0	0	0	0	499	601	
10	0	0	0	0	499	602	
11	0	0	0	0	500	602	
12	0	0	0	0	501	602	
13	0	0	0	0	501	602	
14	0	0	0	0	501	602	
15	0	0	0	0	500	602	
0	0	0	0	0	500	602	
1	0	0	0	0	499	602	
2	0	0	0	0	499	601	
3	0	0	0	0	500	602	
4	0	0	0	0	501	602	
5	0	0	0	0	502	602	
6	0	0	0	0	504	602	
7	0	0	0	0	504	602	
8	0	0	0	0	504	602	
9	0	0	0	0	503	602	
10	0	0	0	0	503	602	
11	0	0	0	0	502	602	
12	0	0	0	0	502	602	
13	0	0	0	0	502	602	
14	0	0	0	0	502	602	
15	0	0	0	0	503	602	
0	0	0	0	0	503	602	
1	0	0	0	0	503	602	
2	0	0	0	0	504	602	
3	0	0	0	0	505	602	
4	0	0	0	0	505	602	
5	0	0	0	0	506	602	
6	0	0	0	0	506	602	
7	0	0	0	0	507	602	
8	0	0	0	0	506	602	
9	0	0	0	0	507	602	
10	0	0	0	0	507	602	
11	0	0	0	0	506	602	
12	0	0	0	0	507	602	
13	0	0	0	0	505	602	
14	0	0	0	0	506	602	
15	0	0	0	0	506	602	
0	0	0	0	0	507	602	
1	0	0	0	0	507	602	
2	0	0	0	0	507	602	
3	0	0	0	0	508	602	
4	0	0	0	0	507	602	
5	0	0	0	0	506	602	
6	0	0	0	0	507	602	
7	0	0	0	0	508	602	
8	0	0	0	0	509	602	
9	0	0	0	0	509	602	
10	0	0	0	0	508	602	
11	0	0	0	0	508	602	
12	0	0	0	0	508	602	
13	0	0	0	0	508	602	
14	0	0	0	0	509	602	
15	0	0	0	0	509	602	
0	0	0	0	0	508	602	
1	0	0	0	0	507	602	
2	0	0	0	0	507	602	
3	0	0	0	0	505	602	
4	0	0	0	0	505	602	
5	0	0	0	0	504	602	
6	0	0	0	0	504	602	
7	0	0	0	0	505	602	
8	0	0	0	0	505	602	
9	0	0	0	0	506	602	
10	0	0	0	0	506	602	
11	0	0	0	0	505	602	
12	0	0	0	0	505	602	
13	0	0	0	0	505	602	
14	0	0	0	0	505	602	
15	0	0	0	0	504	602	
0	0	0	0	0	503	602	
1	0	0	0	0	502	602	
2	0	0	0	0	502	602	
3	0	0	0	0	503	602	
4	0	0	0	0	504	602	
5	0	0	0	0	504	602	
6	0	0	0	0	504	602	
7	0	0	0	0	504	602	
8	0	0	0	0	504	602	
9	0	0	0	0	504	602	
10	0	0	0	0	504	602	
11	0	0	0	0	505	602	
12	0	0	0	0	505	602	
13	0	0	0	0	506	602	
14	0	0	0	0	508	602	
15	0	0	0	0	507	602	
0	0	0	0	0	507	602	
1	0	0	0	0	508	602	
2	0	0	0	0	509	602	
3	0	0	0	0	510	603	
4	0	0	0	0	510	602	
5	0	0	0	0	511	602	
6	0	0	0	0	511	602	
7	0	0	0	0	511	602	
8	0	0	0	0	512	603	
9	0	0	0	0	512	602	
10	0	0	0	0	513	602	
11	0	0	0	0	514	602	
12	0	0	0	0	514	602	
13	0	0	0	0	516	603	
14	0	0	0	0	516	602	
15	0	0	0	0	516	602	
0	0	0	0	0	516	602	
1	0	0	0	0	516	602	
2	0	0	0	0	517	603	
3	0	0	0	0	516	602	
4	0	0	0	0	517	603	
5	0	0	0	0	516	603	
6	0	0	0	0	515	602	
7	0	0	0	0	514	602	
8	0	0	0	0	515	602	
9	0	0	0	0	516	602	
10	0	0	0	0	516	602	
11	0	0	0	0	517	602	
12	0	0	0	0	518	602	
13	0	0	0	0	517	602	
14	0	0	0	0	516	603	
15	0	0	0	0	515	603	
0	0	0	0	0	515	602	
1	0	0	0	0	515	603	
2	0	0	0	0	513	602	
3	0	0	0	0	512	603	
4	0	0	0	0	512	602	
5	0	0	0	0	511	602	
6	0	0	0	0	511	602	
7	0	0	0	0	510	602	
8	0	0	0	0	510	603	
9	0	0	0	0	509	603	
10	0	0	0	0	508	602	
11	0	0	0	0	509	603	
12	0	0	0	0	508	602	
13	0	0	0	0	507	602	
14	0	0	0	0	506	603	
15	0	0	0	0	505	602	
0	0	0	0	0	506	603	
1	0	0	0	0	505	603	
2	0	0	0	0	504	602	
3	0	0	0	0	503	603	
4	0	0	0	0	501	602	
5	0	0	0	0	501	603	
6	0	0	0	0	500	603	
7	0	0	0	0	500	603	
8	0	0	0	0	500	603	
9	0	0	0	0	500	603	
10	0	0	0	0	500	603	
11	0	0	0	0	500	603	
12	0	0	0	0	499	603	
13	0	0	0	0	499	603	
14	0	0	0	0	499	603	
15	0	0	0	0	500	603	
0	0	0	0	0	501	603	
1	0	0	0	0	502	603	
2	0	0	0	0	502	603	
3	0	0	0	0	501	602	
4	0	0	0	0	502	603	
5	0	0	0	0	501	603	
6	0	0	0	0	502	603	
7	0	0	0	0	502	603	
8	0	0	0	0	502	602	
9	0	0	0	0	502	603	
10	0	0	0	0	503	603	
11	0	0	0	0	504	603	
12	0	0	0	0	504	603	
13	0	0	0	0	504	602	
14	0	0	0	0	503	603	
15	0	0	0	0	504	603	
0	0	0	0	0	505	603	
1	0	0	0	0	506	603	
2	0	0	0	0	506	603	
3	0	0	0	0	506	603	
4	0	0	0	0	506	603	
5	0	0	0	0	507	603	
6	0	0	0	0	507	603	
7	0	0	0	0	505	602	
8	0	0	0	0	505	603	
9	0	0	0	0	504	603	
10	0	0	0	0	504	603	
11	0	0	0	0	505	603	
12	0	0	0	0	505	603	
13	0	0	0	0	508	603	
14	0	0	0	0	508	603	
15	0	0	0	0	508	603	
0	0	0	0	0	507	603	
1	0	0	0	0	507	603	
2	0	0	0	0	508	603	
3	0	0	0	0	508	603	
4	0	0	0	0	508	603	
5	0	0	0	0	508	603	
6	0	0	0	0	508	603	
7	0	0	0	0	510	603	
8	0	0	0	0	510	603	
9	0	0	0	0	511	603	
10	0	0	0	0	512	603	
11	0	0	0	0	513	603	
12	0	0	0	0	514	603	
13	0	0	0	0	515	603	
14	0	0	0	0	515	603	
15	0	0	0	0	515	603	
0	0	0	0	0	517	603	
1	0	0	0	0	518	603	
2	0	0	0	0	518	603	
3	0	0	0	0	518	603	
4	0	0	0	0	518	603	
5	0	0	0	0	518	603	
6	0	0	0	0	517	603	
7	0	0	0	0	517	603	
8	0	0	0	0	516	603	
9	0	0	0	0	514	603	
10	0	0	0	0	514	603	
11	0	0	0	0	515	603	
12	0	0	0	0	516	603	
13	0	0	0	0	517	603	
14	0	0	0	0	518	603	
15	0	0	0	0	519	603	
0	0	0	0	0	520	603	
1	0	0	0	0	520	603	
2	0	0	0	0	520	603	
3	0	0	0	0	519	603	
4	0	0	0	0	519	603	
5	0	0	0	0	519	603	
6	0	0	0	0	519	603	
7	0	0	0	0	519	603	
8	0	0	0	0	519	603	
9	0	0	0	0	519	603	
10	0	0	0	0	519	603	
11	0	0	0	0	518	603	
12	0	0	0	0	518	603	
13	0	0	0	0	519	603	
14	0	0	0	0	520	603	
15	0	0	0	0	521	603	
0	0	0	0	0	521	603	
1	0	0	0	0	521	603	
2	0	0	0	0	519	603	
3	0	0	0	0	518	603	
4	0	0	0	0	517	603	
5	0	0	0	0	515	603	
6	0	0	0	0	514	603	
7	0	0	0	0	513	603	
8	0	0	0	0	512	603	
9	0	0	0	0	511	603	
10	0	0	0	0	510	603	
11	0	0	0	0	510	603	
12	0	0	0	0	509	603	
13	0	0	0	0	509	603	
14	0	0	0	0	509	603	
15	0	0	0	0	509	603	
0	0	0	0	0	508	603	
1	0	0	0	0	508	603	
2	0	0	0	0	506	603	
3	0	0	0	0	506	603	
4	0	0	0	0	507	603	
5	0	0	0	0	507	603	
6	0	0	0	0	507	603	
7	0	0	0	0	507	603	
8	0	0	0	0	507	603	
9	0	0	0	0	507	603	
10	0	0	0	0	507	603	
11	0	0	0	0	506	603	
12	0	0	0	0	505	603	
13	0	0	0	0	506	603	
14	0	0	0	0	506	603	
15	0	0	0	0	507	603	
0	0	0	0	0	507	603	
1	0	0	0	0	507	603	
2	0	0	0	0	507	603	
3	0	0	0	0	507	603	
4	0	0	0	0	507	603	
5	0	0	0	0	505	603	
6	0	0	0	0	505	603	
7	0	0	0	0	504	603	
8	0	0	0	0	503	603	
9	0	0	0	0	502	603	
10	0	0	0	0	501	603	
11	0	0	0	0	502	603	
12	0	0	0	0	503	603	
13	0	0	0	0	504	603	
14	0	0	0	0	504	603	
15	0	0	0	0	504	603	
0	0	0	0	0	504	603	
1	0	0	0	0	504	603	
2	0	0	0	0	504	603	
3	0	0	0	0	504	603	
4	0	0	0	0	503	603	
5	0	0	0	0	504	603	
6	0	0	0	0	504	603	
7	0	0	0	0	505	603	
8	0	0	0	0	505	603	
9	0	0	0	0	505	603	
10	0	0	0	0	506	603	
11	0	0	0	0	507	604	
12	0	0	0	0	508	603	
13	0	0	0	0	508	603	
14	0	0	0	0	509	603	
15	0	0	0	0	509	603	
0	0	0	0	0	511	604	
1	0	0	0	0	512	603	
2	0	0	0	0	513	603	
3	0	0	0	0	515	604	
4	0	0	0	0	515	603	
5	0	0	0	0	516	604	
6	0	0	0	0	516	603	
7	0	0	0	0	516	603	
8	0	0	0	0	515	603	
9	0	0	0	0	515	603	
10	0	0	0	0	515	604	
11	0	0	0	0	515	603	
12	0	0	0	0	515	603	
13	0	0	0	0	515	603	
14	0	0	0	0	515	603	
15	0	0	0	0	516	604	
0	0	0	0	0	516	603	
1	0	0	0	0	517	603	
2	0	0	0	0	518	603	
3	0	0	0	0	518	603	
4	0	0	0	0	518	604	
5	0	0	0	0	518	604	
6	0	0	0	0	519	604	
7	0	0	0	0	521	604	
8	0	0	0	0	522	603	
9	0	0	0	0	523	604	
10	0	0	0	0	523	603	
11	0	0	0	0	525	603	
12	0	0	0	0	526	604	
13	0	0	0	0	528	603	
14	0	0	0	0	531	604	
15	0	0	0	0	531	604	
0	0	0	0	0	532	604	
1	0	0	0	0	534	604	
2	0	0	0	0	535	603	
3	0	0	0	0	535	604	
4	0	0	0	0	535	604	
5	0	0	0	0	535	604	
6	0	0	0	0	534	604	
7	0	0	0	0	534	604	
8	0	0	0	0	534	603	
9	0	0	0	0	535	604	
10	0	0	0	0	535	604	
11	0	0	0	0	534	604	
12	0	0	0	0	533	603	
13	0	0	0	0	533	604	
14	0	0	0	0	532	604	
15	0	0	0	0	532	604	
0	0	0	0	0	532	604	
1	0	0	0	0	533	604	
2	0	0	0	0	534	604	
3	0	0	0	0	534	604	
4	0	0	0	0	534	604	
5	0	0	0	0	533	604	
6	0	0	0	0	531	603	
7	0	0	0	0	531	604	
8	0	0	0	0	529	604	
9	0	0	0	0	527	604	
10	0	0	0	0	526	604	
11	0	0	0	0	523	604	
12	0	0	0	0	521	604	
13	0	0	0	0	519	604	
14	0	0	0	0	517	604	
15	0	0	0	0	516	604	
0	0	0	0	0	515	604	
1	0	0	0	0	515	604	
2	0	0	0	0	515	604	
3	0	0	0	0	515	604	
4	0	0	0	0	513	604	
5	0	0	0	0	511	604	
6	0	0	0	0	511	604	
7	0	0	0	0	509	604	
8	0	0	0	0	508	604	
9	0	0	0	0	506	604	
10	0	0	0	0	504	604	
11	0	0	0	0	503	604	
12	0	0	0	0	502	604	
13	0	0	0	0	501	604	
14	0	0	0	0	500	604	
15	0	0	0	0	500	604	
0	0	0	0	0	501	604	
1	0	0	0	0	500	604	
2	0	0	0	0	500	604	
3	0	0	0	0	500	604	
4	0	0	0	0	500	604	
5	0	0	0	0	499	604	
6	0	0	0	0	497	604	
7	0	0	0	0	497	604	
8	0	0	0	0	498	604	
9	0	0	0	0	498	604	
10	0	0	0	0	499	604	
11	0	0	0	0	499	604	
12	0	0	0	0	499	604	
13	0	0	0	0	499	604	
14	0	0	0	0	499	604	
15	0	0	0	0	500	604	
0	0	0	0	0	499	604	
1	0	0	0	0	499	604	
2	0	0	0	0	499	604	
3	0	0	0	0	499	604	
4	0	0	0	0	500	604	
5	0	0	0	0	500	604	
6	0	0	0	0	500	604	
7	0	0	0	0	502	604	
8	0	0	0	0	501	604	
9	0	0	0	0	502	604	
10	0	0	0	0	502	604	
11	0	0	0	0	502	604	
12	0	0	0	0	500	604	
13	0	0	0	0	500	604	
14	0	0	0	0	500	604	
15	0	0	0	0	500	604	
0	0	0	0	0	500	604	
1	0	0	0	0	501	604	
2	0	0	0	0	503	604	
3	0	0	0	0	504	604	
4	0	0	0	0	506	604	
5	0	0	0	0	506	604	
6	0	0	0	0	506	604	
7	0	0	0	0	506	604	
8	0	0	0	0	507	604	
9	0	0	0	0	507	604	
10	0	0	0	0	507	604	
11	0	0	0	0	507	604	
12	0	0	0	0	507	604	
13	0	0	0	0	507	604	
14	0	0	0	0	507	604	
15	0	0	0	0	508	604	
0	0	0	0	0	508	604	
1	0	0	0	0	510	604	
2	0	0	0	0	511	604	
3	0	0	0	0	512	604	
4	0	0	0	0	515	604	
5	0	0	0	0	517	604	
6	0	0	0	0	519	604	
7	0	0	0	0	523	604	
8	0	0	0	0	526	604	
9	0	0	0	0	531	604	
10	0	0	0	0	536	604	
11	0	0	0	0	540	604	
12	0	0	0	0	546	604	
13	0	0	0	0	550	604	
14	0	0	0	0	555	604	
15	0	0	0	0	560	604	
0	0	0	0	0	566	604	
1	0	0	0	0	572	604	
2	0	0	0	0	578	604	
3	0	0	0	0	585	604	
4	0	0	0	0	591	604	
5	0	0	0	0	598	604	
6	0	0	0	0	604	604	
7	0	0	0	0	608	604	
8	0	0	0	0	611	604	
9	0	0	0	0	613	604	
10	0	0	0	0	613	604	
11	0	0	0	0	612	604	
12	0	0	0	0	609	604	
13	0	0	0	0	605	604	
14	0	0	0	0	602	604	
15	0	0	0	0	597	604	
0	0	0	0	0	589	604	
1	0	0	0	0	580	604	
2	0	0	0	0	569	604	
3	0	0	0	0	557	604	
4	0	0	0	0	543	604	
5	0	0	0	0	529	604	
6	0	0	0	0	513	604	
7	0	0	0	0	499	604	
8	0	0	0	0	484	604	
9	0	0	0	0	469	604	
10	0	0	0	0	454	604	
11	0	0	0	0	439	604	
12	0	0	0	0	424	604	
13	0	0	0	0	411	604	
14	0	0	0	0	399	604	
15	0	0	0	0	389	604	
0	0	0	0	0	382	604	
1	0	0	0	0	379	604	
2	0	0	0	0	378	604	
3	0	0	0	0	380	604	
4	0	0	0	0	384	604	
5	0	0	0	0	388	604	
6	0	0	0	0	392	604	
7	0	0	0	0	397	604	
8	0	0	0	0	402	604	
9	0	0	0	0	408	604	
10	0	0	0	0	414	604	
11	0	0	0	0	419	604	
12	0	0	0	0	424	604	
13	0	0	0	0	428	604	
14	0	0	0	0	434	605	
15	0	0	0	0	440	604	
0	0	0	0	0	445	604	
1	0	0	0	0	449	604	
2	0	0	0	0	455	604	
3	0	0	0	0	460	605	
4	0	0	0	0	465	604	
5	0	0	0	0	472	604	
6	0	0	0	0	476	604	
7	0	0	0	0	480	604	
8	0	0	0	0	484	605	
9	0	0	0	0	486	604	
10	0	0	0	0	488	604	
11	0	0	0	0	492	604	
12	0	0	0	0	495	604	
13	0	0	0	0	498	605	
14	0	0	0	0	499	605	
15	0	0	0	0	500	604	
0	0	0	0	0	502	604	
1	0	0	0	0	504	604	
2	0	0	0	0	506	605	
3	0	0	0	0	507	604	
4	0	0	0	0	510	604	
5	0	0	0	0	512	604	
6	0	0	0	0	513	604	
7	0	0	0	0	515	605	
8	0	0	0	0	516	604	
9	0	0	0	0	517	604	
10	0	0	0	0	518	604	
11	0	0	0	0	518	604	
12	0	0	0	0	519	605	
13	0	0	0	0	518	604	
14	0	0	0	0	517	604	
15	0	0	0	0	518	605	
0	0	0	0	0	518	604	
1	0	0	0	0	518	605	
2	0	0	0	0	518	605	
3	0	0	0	0	518	605	
4	0	0	0	0	519	605	
5	0	0	0	0	519	604	
6	0	0	0	0	520	605	
7	0	0	0	0	520	604	
8	0	0	0	0	521	605	
9	0	0	0	0	523	605	
10	0	0	0	0	523	604	
11	0	0	0	0	523	605	
12	0	0	0	0	522	605	
13	0	0	0	0	523	605	
14	0	0	0	0	524	605	
15	0	0	0	0	525	604	
0	0	0	0	0	527	605	
1	0	0	0	0	527	605	
2	0	0	0	0	528	605	
3	0	0	0	0	528	605	
4	0	0	0	0	528	604	
5	0	0	0	0	529	605	
6	0	0	0	0	528	605	
7	0	0	0	0	528	604	
8	0	0	0	0	528	605	
9	0	0	0	0	528	604	
10	0	0	0	0	528	605	
11	0	0	0	0	529	605	
12	0	0	0	0	531	605	
13	0	0	0	0	532	605	
14	0	0	0	0	533	604	
15	0	0	0	0	534	605	
0	0	0	0	0	534	605	
1	0	0	0	0	535	605	
2	0	0	0	0	535	605	
3	0	0	0	0	534	605	
4	0	0	0	0	534	605	
5	0	0	0	0	534	605	
6	0	0	0	0	533	605	
7	0	0	0	0	533	605	
8	0	0	0	0	533	604	
9	0	0	0	0	534	605	
10	0	0	0	0	533	604	
11	0	0	0	0	531	605	
12	0	0	0	0	531	605	
13	0	0	0	0	532	605	
14	0	0	0	0	532	605	
15	0	0	0	0	532	605	
0	0	0	0	0	533	605	
1	0	0	0	0	533	605	
2	0	0	0	0	534	605	
3	0	0	0	0	535	605	
4	0	0	0	0	535	605	
5	0	0	0	0	536	605	
6	0	0	0	0	536	605	
7	0	0	0	0	537	605	
8	0	0	0	0	537	605	
9	0	0	0	0	536	605	
10	0	0	0	0	537	605	
11	0	0	0	0	537	605	
12	0	0	0	0	537	605	
13	0	0	0	0	537	605	
14	0	0	0	0	536	605	
15	0	0	0	0	536	605	
0	0	0	0	0	536	605	
1	0	0	0	0	536	605	
2	0	0	0	0	536	605	
3	0	0	0	0	536	605	
4	0	0	0	0	536	605	
5	0	0	0	0	535	605	
6	0	0	0	0	534	604	
7	0	0	0	0	534	605	
8	0	0	0	0	533	605	
9	0	0	0	0	533	605	
10	0	0	0	0	534	605	
11	0	0	0	0	535	605	
12	0	0	0	0	535	605	
13	0	0	0	0	534	605	
14	0	0	0	0	534	605	
15	0	0	0	0	535	605	
0	0	0	0	0	536	605	
1	0	0	0	0	536	605	
2	0	0	0	0	536	605	
3	0	0	0	0	536	605	
4	0	0	0	0	536	605	
5	0	0	0	0	536	605	
6	0	0	0	0	537	605	
7	0	0	0	0	536	605	
8	0	0	0	0	536	605	
9	0	0	0	0	537	605	
10	0	0	0	0	538	605	
11	0	0	0	0	538	605	
12	0	0	0	0	539	605	
13	0	0	0	0	537	605	
14	0	0	0	0	538	605	
15	0	0	0	0	539	605	
0	0	0	0	0	539	605	
1	0	0	0	0	540	605	
2	0	0	0	0	540	605	
3	0	0	0	0	540	605	
4	0	0	0	0	539	605	
5	0	0	0	0	540	605	
6	0	0	0	0	540	605	
7	0	0	0	0	541	605	
8	0	0	0	0	542	605	
9	0	0	0	0	541	605	
10	0	0	0	0	542	605	
11	0	0	0	0	542	605	
12	0	0	0	0	543	605	
13	0	0	0	0	543	605	
14	0	0	0	0	542	605	
15	0	0	0	0	542	605	
0	0	0	0	0	540	605	
1	0	0	0	0	539	605	
2	0	0	0	0	539	605	
3	0	0	0	0	539	605	
4	0	0	0	0	538	606	
5	0	0	0	0	536	605	
6	0	0	0	0	537	605	
7	0	0	0	0	537	605	
8	0	0	0	0	537	605	
9	0	0	0	0	537	605	
10	0	0	0	0	539	605	
11	0	0	0	0	540	605	
12	0	0	0	0	541	605	
13	0	0	0	0	542	605	
14	0	0	0	0	543	605	
15	0	0	0	0	544	606	
0	0	0	0	0	544	605	
1	0	0	0	0	545	605	
2	0	0	0	0	545	605	
3	0	0	0	0	546	606	
4	0	0	0	0	545	605	
5	0	0	0	0	546	605	
6	0	0	0	0	545	605	
7	0	0	0	0	545	605	
8	0	0	0	0	545	606	
9	0	0	0	0	546	605	
10	0	0	0	0	548	605	
11	0	0	0	0	549	605	
12	0	0	0	0	549	605	
13	0	0	0	0	548	606	
14	0	0	0	0	547	606	
15	0	0	0	0	546	605	
0	0	0	0	0	545	606	
1	0	0	0	0	544	605	
2	0	0	0	0	543	606	
3	0	0	0	0	542	605	
4	0	0	0	0	542	606	
5	0	0	0	0	541	606	
6	0	0	0	0	539	605	
7	0	0	0	0	537	606	
8	0	0	0	0	535	605	
9	0	0	0	0	534	606	
10	0	0	0	0	533	606	
11	0	0	0	0	532	605	
12	0	0	0	0	531	606	
13	0	0	0	0	530	606	
14	0	0	0	0	529	606	
15	0	0	0	0	527	606	
0	0	0	0	0	524	605	
1	0	0	0	0	521	606	
2	0	0	0	0	519	606	
3	0	0	0	0	517	606	
4	0	0	0	0	515	606	
5	0	0	0	0	513	605	
6	0	0	0	0	512	606	
7	0	0	0	0	510	606	
8	0	0	0	0	508	606	
9	0	0	0	0	506	606	
10	0	0	0	0	504	605	
11	0	0	0	0	502	606	
12	0	0	0	0	499	606	
13	0	0	0	0	499	606	
14	0	0	0	0	498	606	
15	0	0	0	0	498	606	
0	0	0	0	0	499	606	
1	0	0	0	0	499	606	
2	0	0	0	0	498	606	
3	0	0	0	0	496	606	
4	0	0	0	0	495	606	
5	0	0	0	0	493	606	
6	0	0	0	0	492	606	
7	0	0	0	0	491	606	
8	0	0	0	0	489	606	
9	0	0	0	0	487	605	
10	0	0	0	0	485	606	
11	0	0	0	0	483	606	
12	0	0	0	0	482	606	
13	0	0	0	0	481	606	
14	0	0	0	0	480	606	
15	0	0	0	0	479	606	
0	0	0	0	0	478	606	
1	0	0	0	0	476	606	
2	0	0	0	0	476	606	
3	0	0	0	0	474	605	
4	0	0	0	0	473	606	
5	0	0	0	0	473	606	
6	0	0	0	0	472	606	
7	0	0	0	0	470	606	
8	0	0	0	0	470	606	
9	0	0	0	0	470	606	
10	0	0	0	0	470	606	
11	0	0	0	0	470	606	
12	0	0	0	0	469	606	
13	0	0	0	0	468	606	
14	0	0	0	0	467	606	
15	0	0	0	0	467	606	
0	0	0	0	0	468	606	
1	0	0	0	0	470	606	
2	0	0	0	0	471	606	
3	0	0	0	0	472	606	
4	0	0	0	0	472	606	
5	0	0	0	0	472	606	
6	0	0	0	0	472	606	
7	0	0	0	0	473	606	
8	0	0	0	0	473	606	
9	0	0	0	0	473	606	
10	0	0	0	0	473	606	
11	0	0	0	0	473	606	
12	0	0	0	0	475	606	
13	0	0	0	0	476	606	
14	0	0	0	0	476	606	
15	0	0	0	0	476	606	
0	0	0	0	0	476	606	
1	0	0	0	0	476	606	
2	0	0	0	0	476	606	
3	0	0	0	0	476	606	
4	0	0	0	0	476	606	
5	0	0	0	0	476	606	
6	0	0	0	0	477	606	
7	0	0	0	0	479	606	
8	0	0	0	0	479	606	
9	0	0	0	0	480	606	
10	0	0	0	0	480	606	
11	0	0	0	0	480	606	
12	0	0	0	0	481	606	
13	0	0	0	0	480	606	
14	0	0	0	0	480	606	
15	0	0	0	0	480	606	
0	0	0	0	0	480	606	
1	0	0	0	0	482	606	
2	0	0	0	0	483	606	
3	0	0	0	0	484	606	
4	0	0	0	0	486	606	
5	0	0	0	0	487	606	
6	0	0	0	0	487	606	
7	0	0	0	0	486	606	
8	0	0	0	0	486	606	
9	0	0	0	0	486	606	
10	0	0	0	0	485	606	
11	0	0	0	0	486	606	
12	0	0	0	0	486	606	
13	0	0	0	0	486	606	
14	0	0	0	0	486	606	
15	0	0	0	0	485	606	
0	0	0	0	0	485	606	
1	0	0	0	0	485	606	
2	0	0	0	0	485	606	
3	0	0	0	0	486	606	
4	0	0	0	0	486	606	
5	0	0	0	0	487	606	
6	0	0	0	0	487	606	
7	0	0	0	0	487	606	
8	0	0	0	0	487	606	
9	0	0	0	0	487	606	
10	0	0	0	0	487	606	
11	0	0	0	0	487	606	
12	0	0	0	0	486	606	
13	0	0	0	0	484	606	
14	0	0	0	0	483	606	
15	0	0	0	0	483	606	
0	0	0	0	0	483	606	
1	0	0	0	0	484	606	
2	0	0	0	0	484	606	
3	0	0	0	0	482	606	
4	0	0	0	0	481	606	
5	0	0	0	0	482	606	
6	0	0	0	0	483	606	
7	0	0	0	0	483	606	
8	0	0	0	0	483	606	
9	0	0	0	0	485	606	
10	0	0	0	0	484	606	
11	0	0	0	0	483	606	
12	0	0	0	0	484	606	
13	0	0	0	0	484	606	
14	0	0	0	0	485	606	
15	0	0	0	0	484	606	
0	0	0	0	0	485	606	
1	0	0	0	0	486	606	
2	0	0	0	0	486	606	
3	0	0	0	0	487	606	
4	0	0	0	0	487	606	
5	0	0	0	0	487	606	
6	0	0	0	0	487	606	
7	0	0	0	0	487	606	
8	0	0	0	0	487	606	
9	0	0	0	0	486	606	
10	0	0	0	0	485	606	
11	0	0	0	0	485	606	
12	0	0	0	0	484	606	
13	0	0	0	0	485	606	
14	0	0	0	0	485	606	
15	0	0	0	0	485	606	
0	0	0	0	0	484	606	
1	0	0	0	0	484	606	
2	0	0	0	0	485	606	
3	0	0	0	0	486	606	
4	0	0	0	0	486	606	
5	0	0	0	0	487	606	
6	0	0	0	0	487	606	
7	0	0	0	0	488	606	
8	0	0	0	0	488	606	
9	0	0	0	0	488	606	
10	0	0	0	0	488	606	
11	0	0	0	0	489	606	
12	0	0	0	0	490	606	
13	0	0	0	0	490	606	
14	0	0	0	0	490	606	
15	0	0	0	0	492	606	
0	0	0	0	0	493	606	
1	0	0	0	0	493	606	
2	0	0	0	0	493	606	
3	0	0	0	0	494	606	
4	0	0	0	0	494	606	
5	0	0	0	0	495	606	
6	0	0	0	0	497	606	
7	0	0	0	0	497	606	
8	0	0	0	0	498	606	
9	0	0	0	0	498	606	
10	0	0	0	0	498	606	
11	0	0	0	0	499	606	
12	0	0	0	0	500	606	
13	0	0	0	0	501	606	
14	0	0	0	0	501	606	
15	0	0	0	0	502	606	
0	0	0	0	0	502	606	
1	0	0	0	0	503	606	
2	0	0	0	0	504	606	
3	0	0	0	0	503	606	
4	0	0	0	0	503	606	
5	0	0	0	0	503	606	
6	0	0	0	0	502	606	
7	0	0	0	0	502	606	
8	0	0	0	0	501	606	
9	0	0	0	0	500	606	
10	0	0	0	0	501	606	
11	0	0	0	0	500	606	
12	0	0	0	0	499	606	
13	0	0	0	0	499	606	
14	0	0	0	0	500	606	
15	0	0	0	0	501	607	
0	0	0	0	0	500	606	
1	0	0	0	0	500	606	
2	0	0	0	0	501	606	
3	0	0	0	0	502	606	
4	0	0	0	0	503	606	
5	0	0	0	0	504	606	
6	0	0	0	0	505	607	
7	0	0	0	0	505	606	
8	0	0	0	0	506	606	
9	0	0	0	0	507	606	
10	0	0	0	0	508	606	
11	0	0	0	0	508	606	
12	0	0	0	0	508	606	
13	0	0	0	0	507	606	
14	0	0	0	0	508	606	
15	0	0	0	0	507	606	
0	0	0	0	0	507	606	
1	0	0	0	0	507	606	
2	0	0	0	0	507	606	
3	0	0	0	0	505	606	
4	0	0	0	0	505	606	
5	0	0	0	0	505	606	
6	0	0	0	0	505	607	
7	0	0	0	0	505	606	
8	0	0	0	0	506	607	
9	0	0	0	0	506	606	
10	0	0	0	0	507	606	
11	0	0	0	0	506	606	
12	0	0	0	0	506	606	
13	0	0	0	0	507	607	
14	0	0	0	0	506	607	
15	0	0	0	0	505	606	
0	0	0	0	0	505	606	
1	0	0	0	0	505	606	
2	0	0	0	0	505	607	
3	0	0	0	0	505	606	
4	0	0	0	0	506	607	
5	0	0	0	0	508	606	
6	0	0	0	0	508	606	
7	0	0	0	0	508	607	
8	0	0	0	0	509	606	
9	0	0	0	0	511	607	
10	0	0	0	0	510	607	
11	0	0	0	0	510	606	
12	0	0	0	0	511	607	
13	0	0	0	0	511	606	
14	0	0	0	0	511	607	
15	0	0	0	0	511	607	
0	0	0	0	0	511	606	
1	0	0	0	0	510	607	
2	0	0	0	0	510	606	
3	0	0	0	0	509	607	
4	0	0	0	0	509	606	
5	0	0	0	0	510	606	
6	0	0	0	0	509	606	
7	0	0	0	0	509	607	
8	0	0	0	0	508	607	
9	0	0	0	0	508	607	
10	0	0	0	0	507	606	
11	0	0	0	0	507	607	
12	0	0	0	0	506	606	
13	0	0	0	0	505	606	
14	0	0	0	0	505	607	
15	0	0	0	0	505	606	
0	0	0	0	0	506	607	
1	0	0	0	0	507	607	
2	0	0	0	0	508	607	
3	0	0	0	0	508	607	
4	0	0	0	0	510	606	
5	0	0	0	0	511	607	
6	0	0	0	0	512	606	
7	0	0	0	0	512	607	
8	0	0	0	0	512	606	
9	0	0	0	0	512	606	
10	0	0	0	0	512	607	
11	0	0	0	0	512	606	
12	0	0	0	0	512	607	
13	0	0	0	0	512	606	
14	0	0	0	0	513	606	
15	0	0	0	0	513	607	
0	0	0	0	0	513	606	
1	0	0	0	0	513	607	
2	0	0	0	0	514	607	
3	0	0	0	0	513	606	
4	0	0	0	0	514	607	
5	0	0	0	0	512	607	
6	0	0	0	0	512	607	
7	0	0	0	0	511	607	
8	0	0	0	0	510	606	
9	0	0	0	0	509	606	
10	0	0	0	0	508	606	
11	0	0	0	0	509	606	
12	0	0	0	0	510	607	
13	0	0	0	0	510	606	
14	0	0	0	0	512	607	
15	0	0	0	0	512	607	
0	0	0	0	0	513	607	
1	0	0	0	0	514	607	
2	0	0	0	0	514	607	
3	0	0	0	0	514	607	
4	0	0	0	0	513	606	
5	0	0	0	0	511	606	
6	0	0	0	0	511	607	
7	0	0	0	0	510	606	
8	0	0	0	0	510	607	
9	0	0	0	0	510	606	
10	0	0	0	0	510	606	
11	0	0	0	0	511	607	
12	0	0	0	0	512	606	
13	0	0	0	0	512	607	
14	0	0	0	0	512	607	
15	0	0	0	0	511	607	
0	0	0	0	0	511	607	
1	0	0	0	0	511	606	
2	0	0	0	0	510	607	
3	0	0	0	0	510	607	
4	0	0	0	0	510	606	
5	0	0	0	0	510	606	
6	0	0	0	0	509	606	
7	0	0	0	0	508	607	
8	0	0	0	0	507	606	
9	0	0	0	0	507	607	
10	0	0	0	0	508	607	
11	0	0	0	0	508	606	
12	0	0	0	0	509	607	
13	0	0	0	0	509	607	
14	0	0	0	0	509	607	
15	0	0	0	0	510	607	
0	0	0	0	0	509	606	
1	0	0	0	0	508	606	
2	0	0	0	0	508	607	
3	0	0	0	0	507	607	
4	0	0	0	0	507	607	
5	0	0	0	0	507	606	
6	0	0	0	0	508	606	
7	0	0	0	0	507	607	
8	0	0	0	0	507	607	
9	0	0	0	0	508	606	
10	0	0	0	0	508	606	
11	0	0	0	0	509	606	
12	0	0	0	0	509	606	
13	0	0	0	0	510	606	
14	0	0	0	0	509	607	
15	0	0	0	0	508	606	
0	0	0	0	0	508	607	
1	0	0	0	0	507	607	
2	0	0	0	0	507	606	
3	0	0	0	0	507	607	
4	0	0	0	0	507	606	
5	0	0	0	0	507	607	
6	0	0	0	0	507	607	
7	0	0	0	0	506	606	
8	0	0	0	0	506	607	
9	0	0	0	0	506	606	
10	0	0	0	0	507	607	
11	0	0	0	0	507	607	
12	0	0	0	0	508	607	
13	0	0	0	0	509	607	
14	0	0	0	0	510	606	
15	0	0	0	0	512	607	
0	0	0	0	0	512	607	
1	0	0	0	0	512	607	
2	0	0	0	0	512	607	
3	0	0	0	0	511	606	
4	0	0	0	0	511	607	
5	0	0	0	0	512	607	
6	0	0	0	0	511	607	
7	0	0	0	0	511	607	
8	0	0	0	0	510	606	
9	0	0	0	0	510	607	
10	0	0	0	0	509	607	
11	0	0	0	0	508	607	
12	0	0	0	0	509	607	
13	0	0	0	0	509	606	
14	0	0	0	0	510	606	
15	0	0	0	0	510	607	
0	0	0	0	0	511	607	
1	0	0	0	0	510	607	
2	0	0	0	0	509	606	
3	0	0	0	0	511	607	
4	0	0	0	0	511	606	
5	0	0	0	0	512	607	
6	0	0	0	0	513	607	
7	0	0	0	0	512	606	
8	0	0	0	0	513	607	
9	0	0	0	0	513	607	
10	0	0	0	0	513	607	
11	0	0	0	0	515	607	
12	0	0	0	0	515	606	
13	0	0	0	0	516	607	
14	0	0	0	0	516	607	
15	0	0	0	0	517	607	
0	0	0	0	0	518	607	
1	0	0	0	0	518	606	
2	0	0	0	0	518	607	
3	0	0	0	0	518	607	
4	0	0	0	0	518	607	
5	0	0	0	0	518	607	
6	0	0	0	0	517	606	
7	0	0	0	0	518	607	
8	0	0	0	0	517	607	
9	0	0	0	0	518	607	
10	0	0	0	0	518	607	
11	0	0	0	0	519	606	
12	0	0	0	0	520	607	
13	0	0	0	0	521	607	
14	0	0	0	0	521	607	
15	0	0	0	0	520	607	
0	0	0	0	0	519	606	
1	0	0	0	0	519	607	
2	0	0	0	0	518	607	
3	0	0	0	0	517	606	
4	0	0	0	0	516	607	
5	0	0	0	0	514	606	
6	0	0	0	0	512	607	
7	0	0	0	0	511	607	
8	0	0	0	0	511	606	
9	0	0	0	0	510	607	
10	0	0	0	0	510	606	
11	0	0	0	0	511	607	
12	0	0	0	0	510	607	
13	0	0	0	0	511	607	
14	0	0	0	0	511	607	
15	0	0	0	0	510	607	
0	0	0	0	0	510	607	
1	0	0	0	0	510	607	
2	0	0	0	0	509	607	
3	0	0	0	0	509	607	
4	0	0	0	0	509	606	
5	0	0	0	0	509	607	
6	0	0	0	0	509	606	
7	0	0	0	0	509	607	
8	0	0	0	0	509	607	
9	0	0	0	0	510	606	
10	0	0	0	0	510	607	
11	0	0	0	0	510	607	
12	0	0	0	0	509	607	
13	0	0	0	0	510	607	
14	0	0	0	0	509	607	
15	0	0	0	0	508	607	
0	0	0	0	0	508	607	
1	0	0	0	0	508	607	
2	0	0	0	0	508	607	
3	0	0	0	0	508	606	
4	0	0	0	0	508	607	
5	0	0	0	0	507	607	
6	0	0	0	0	507	607	
7	0	0	0	0	506	607	
8	0	0	0	0	505	607	
9	0	0	0	0	504	606	
10	0	0	0	0	504	607	
11	0	0	0	0	502	607	
12	0	0	0	0	502	607	
13	0	0	0	0	502	606	
14	0	0	0	0	502	607	
15	0	0	0	0	501	607	
0	0	0	0	0	500	607	
1	0	0	0	0	500	607	
2	0	0	0	0	500	606	
3	0	0	0	0	500	607	
4	0	0	0	0	499	607	
5	0	0	0	0	500	607	
6	0	0	0	0	500	607	
7	0	0	0	0	500	606	
8	0	0	0	0	500	607	
9	0	0	0	0	500	607	
10	0	0	0	0	502	607	
11	0	0	0	0	502	607	
12	0	0	0	0	503	607	
13	0	0	0	0	504	607	
14	0	0	0	0	505	607	
15	0	0	0	0	505	607	
0	0	0	0	0	505	607	
1	0	0	0	0	506	607	
2	0	0	0	0	507	607	
3	0	0	0	0	507	607	
4	0	0	0	0	507	607	
5	0	0	0	0	508	607	
6	0	0	0	0	508	607	
7	0	0	0	0	508	607	
8	0	0	0	0	507	607	
9	0	0	0	0	508	607	
10	0	0	0	0	507	607	
11	0	0	0	0	508	607	
12	0	0	0	0	509	607	
13	0	0	0	0	509	607	
14	0	0	0	0	508	607	
15	0	0	0	0	508	607	
0	0	0	0	0	508	607	
1	0	0	0	0	509	607	
2	0	0	0	0	509	607	
3	0	0	0	0	510	607	
4	0	0	0	0	510	607	
5	0	0	0	0	511	607	
6	0	0	0	0	510	607	
7	0	0	0	0	510	607	
8	0	0	0	0	510	607	
9	0	0	0	0	510	607	
10	0	0	0	0	510	607	
11	0	0	0	0	510	607	
12	0	0	0	0	510	607	
13	0	0	0	0	511	607	
14	0	0	0	0	511	607	
15	0	0	0	0	512	607	
0	0	0	0	0	513	607	
1	0	0	0	0	513	607	
2	0	0	0	0	514	607	
3	0	0	0	0	515	607	
4	0	0	0	0	515	606	
5	0	0	0	0	516	607	
6	0	0	0	0	516	607	
7	0	0	0	0	518	607	
8	0	0	0	0	519	607	
9	0	0	0	0	519	606	
10	0	0	0	0	521	607	
11	0	0	0	0	520	607	
12	0	0	0	0	521	607	
13	0	0	0	0	522	607	
14	0	0	0	0	522	607	
15	0	0	0	0	521	607	
0	0	0	0	0	521	607	
1	0	0	0	0	520	607	
2	0	0	0	0	520	607	
3	0	0	0	0	519	606	
4	0	0	0	0	519	607	
5	0	0	0	0	519	607	
6	0	0	0	0	518	607	
7	0	0	0	0	516	607	
8	0	0	0	0	516	607	
9	0	0	0	0	516	607	
10	0	0	0	0	516	607	
11	0	0	0	0	516	607	
12	0	0	0	0	516	607	
13	0	0	0	0	516	606	
14	0	0	0	0	516	607	
15	0	0	0	0	516	607	
0	0	0	0	0	516	607	
1	0	0	0	0	516	607	
2	0	0	0	0	515	606	
3	0	0	0	0	515	607	
4	0	0	0	0	515	607	
5	0	0	0	0	516	607	
6	0	0	0	0	516	607	
7	0	0	0	0	515	607	
8	0	0	0	0	516	607	
9	0	0	0	0	516	607	
10	0	0	0	0	517	607	
11	0	0	0	0	516	607	
12	0	0	0	0	517	607	
13	0	0	0	0	518	607	
14	0	0	0	0	517	607	
15	0	0	0	0	516	607	
0	0	0	0	0	516	607	
1	0	0	0	0	515	606	
2	0	0	0	0	515	607	
3	0	0	0	0	513	607	
4	0	0	0	0	513	607	
5	0	0	0	0	513	607	
6	0	0	0	0	512	607	
7	0	0	0	0	512	607	
8	0	0	0	0	511	607	
9	0	0	0	0	511	607	
10	0	0	0	0	510	607	
11	0	0	0	0	508	606	
12	0	0	0	0	508	607	
13	0	0	0	0	507	607	
14	0	0	0	0	508	607	
15	0	0	0	0	508	607	
0	0	0	0	0	509	606	
1	0	0	0	0	510	607	
2	0	0	0	0	510	606	
3	0	0	0	0	510	607	
4	0	0	0	0	511	607	
5	0	0	0	0	511	607	
6	0	0	0	0	512	607	
7	0	0	0	0	512	607	
8	0	0	0	0	512	607	
9	0	0	0	0	513	607	
10	0	0	0	0	514	606	
11	0	0	0	0	515	607	
12	0	0	0	0	514	606	
13	0	0	0	0	514	607	
14	0	0	0	0	515	607	
15	0	0	0	0	515	606	
0	0	0	0	0	516	607	
1	0	0	0	0	517	607	
2	0	0	0	0	518	607	
3	0	0	0	0	518	607	
4	0	0	0	0	517	606	
5	0	0	0	0	518	607	
6	0	0	0	0	518	607	
7	0	0	0	0	518	607	
8	0	0	0	0	518	607	
9	0	0	0	0	519	606	
10	0	0	0	0	519	606	
11	0	0	0	0	519	607	
12	0	0	0	0	517	607	
13	0	0	0	0	516	606	
14	0	0	0	0	515	606	
15	0	0	0	0	516	607	
0	0	0	0	0	517	607	
1	0	0	0	0	517	606	
2	0	0	0	0	517	607	
3	0	0	0	0	517	606	
4	0	0	0	0	516	607	
5	0	0	0	0	515	607	
6	0	0	0	0	515	607	
7	0	0	0	0	513	607	
8	0	0	0	0	513	606	
9	0	0	0	0	512	607	
10	0	0	0	0	511	607	
11	0	0	0	0	510	607	
12	0	0	0	0	508	607	
13	0	0	0	0	506	606	
14	0	0	0	0	505	607	
15	0	0	0	0	504	607	
0	0	0	0	0	503	607	
1	0	0	0	0	502	607	
2	0	0	0	0	501	606	
3	0	0	0	0	502	607	
4	0	0	0	0	501	607	
5	0	0	0	0	501	607	
6	0	0	0	0	501	607	
7	0	0	0	0	500	606	
8	0	0	0	0	500	607	
9	0	0	0	0	500	606	
10	0	0	0	0	501	606	
11	0	0	0	0	501	607	
12	0	0	0	0	501	606	
13	0	0	0	0	501	607	
14	0	0	0	0	500	607	
15	0	0	0	0	500	607	
0	0	0	0	0	501	607	
1	0	0	0	0	502	606	
2	0	0	0	0	504	607	
3	0	0	0	0	504	606	
4	0	0	0	0	505	606	
5	0	0	0	0	506	607	
6	0	0	0	0	507	607	
7	0	0	0	0	507	607	
8	0	0	0	0	507	607	
9	0	0	0	0	509	607	
10	0	0	0	0	509	607	
11	0	0	0	0	509	606	
12	0	0	0	0	509	607	
13	0	0	0	0	510	607	
14	0	0	0	0	511	607	
15	0	0	0	0	513	607	
0	0	0	0	0	514	606	
1	0	0	0	0	514	607	
2	0	0	0	0	513	607	
3	0	0	0	0	513	607	
4	0	0	0	0	513	607	
5	0	0	0	0	512	606	
6	0	0	0	0	512	607	
7	0	0	0	0	511	607	
8	0	0	0	0	510	607	
9	0	0	0	0	509	607	
10	0	0	0	0	508	606	
11	0	0	0	0	508	607	
12	0	0	0	0	508	607	
13	0	0	0	0	508	606	
14	0	0	0	0	508	607	
15	0	0	0	0	508	607	
0	0	0	0	0	509	607	
1	0	0	0	0	508	607	
2	0	0	0	0	508	607	
3	0	0	0	0	508	606	
4	0	0	0	0	509	606	
5	0	0	0	0	510	607	
6	0	0	0	0	511	606	
7	0	0	0	0	512	606	
8	0	0	0	0	512	607	
9	0	0	0	0	512	606	
10	0	0	0	0	513	607	
11	0	0	0	0	513	606	
12	0	0	0	0	513	606	
13	0	0	0	0	514	606	
14	0	0	0	0	515	606	
15	0	0	0	0	518	607	
0	0	0	0	0	521	606	
1	0	0	0	0	524	606	
2	0	0	0	0	529	606	
3	0	0	0	0	533	606	
4	0	0	0	0	536	607	
5	0	0	0	0	540	607	
6	0	0	0	0	545	606	
7	0	0	0	0	551	606	
8	0	0	0	0	558	606	
9	0	0	0	0	564	606	
10	0	0	0	0	571	606	
11	0	0	0	0	577	606	
12	0	0	0	0	582	606	
13	0	0	0	0	587	606	
14	0	0	0	0	592	607	
15	0	0	0	0	595	607	
0	0	0	0	0	599	607	
1	0	0	0	0	601	607	
2	0	0	0	0	602	606	
3	0	0	0	0	604	607	
4	0	0	0	0	604	606	
5	0	0	0	0	602	606	
6	0	0	0	0	599	606	
7	0	0	0	0	592	606	
8	0	0	0	0	584	607	
9	0	0	0	0	575	606	
10	0	0	0	0	563	606	
11	0	0	0	0	550	606	
12	0	0	0	0	536	606	
13	0	0	0	0	519	607	
14	0	0	0	0	501	606	
15	0	0	0	0	484	607	
0	0	0	0	0	467	606	
1	0	0	0	0	452	606	
2	0	0	0	0	436	607	
3	0	0	0	0	420	606	
4	0	0	0	0	406	606	
5	0	0	0	0	393	606	
6	0	0	0	0	383	606	
7	0	0	0	0	375	606	
8	0	0	0	0	371	606	
9	0	0	0	0	371	606	
10	0	0	0	0	372	607	
11	0	0	0	0	376	606	
12	0	0	0	0	381	607	
13	0	0	0	0	387	606	
14	0	0	0	0	392	606	
15	0	0	0	0	397	606	
0	0	0	0	0	403	606	
1	0	0	0	0	409	607	
2	0	0	0	0	414	606	
3	0	0	0	0	418	606	
4	0	0	0	0	423	606	
5	0	0	0	0	428	606	
6	0	0	0	0	435	607	
7	0	0	0	0	440	606	
8	0	0	0	0	446	606	
9	0	0	0	0	450	606	
10	0	0	0	0	456	606	
11	0	0	0	0	462	607	
12	0	0	0	0	467	606	
13	0	0	0	0	472	606	
14	0	0	0	0	476	606	
15	0	0	0	0	478	606	
0	0	0	0	0	479	606	
1	0	0	0	0	481	606	
2	0	0	0	0	485	606	
3	0	0	0	0	490	606	
4	0	0	0	0	494	606	
5	0	0	0	0	498	606	
6	0	0	0	0	501	606	
7	0	0	0	0	503	606	
8	0	0	0	0	503	606	
9	0	0	0	0	504	606	
10	0	0	0	0	506	607	
11	0	0	0	0	508	606	
12	0	0	0	0	510	606	
13	0	0	0	0	511	606	
14	0	0	0	0	511	606	
15	0	0	0	0	511	606	
0	0	0	0	0	512	606	
1	0	0	0	0	513	606	
2	0	0	0	0	513	606	
3	0	0	0	0	514	606	
4	0	0	0	0	515	607	
5	0	0	0	0	516	606	
6	0	0	0	0	516	606	
7	0	0	0	0	518	606	
8	0	0	0	0	519	606	
9	0	0	0	0	520	606	
10	0	0	0	0	521	606	
11	0	0	0	0	522	606	
12	0	0	0	0	523	606	
13	0	0	0	0	522	606	
14	0	0	0	0	522	606	
15	0	0	0	0	522	606	
0	0	0	0	0	522	606	
1	0	0	0	0	523	606	
2	0	0	0	0	523	606	
3	0	0	0	0	524	606	
4	0	0	0	0	526	606	
5	0	0	0	0	527	606	
6	0	0	0	0	527	606	
7	0	0	0	0	528	606	
8	0	0	0	0	528	606	
9	0	0	0	0	528	606	
10	0	0	0	0	529	606	
11	0	0	0	0	529	606	
12	0	0	0	0	530	606	
13	0	0	0	0	531	606	
14	0	0	0	0	532	606	
15	0	0	0	0	533	606	
0	0	0	0	0	533	606	
1	0	0	0	0	534	606	
2	0	0	0	0	535	606	
3	0	0	0	0	535	606	
4	0	0	0	0	535	606	
5	0	0	0	0	535	606	
6	0	0	0	0	535	606	
7	0	0	0	0	535	606	
8	0	0	0	0	536	606	
9	0	0	0	0	538	606	
10	0	0	0	0	539	606	
11	0	0	0	0	540	606	
12	0	0	0	0	541	606	
13	0	0	0	0	540	606	
14	0	0	0	0	540	606	
15	0	0	0	0	540	606	
0	0	0	0	0	540	606	
1	0	0	0	0	539	606	
2	0	0	0	0	538	606	
3	0	0	0	0	538	606	
4	0	0	0	0	537	606	
5	0	0	0	0	538	606	
6	0	0	0	0	538	606	
7	0	0	0	0	538	606	
8	0	0	0	0	539	606	
9	0	0	0	0	539	606	
10	0	0	0	0	539	606	
11	0	0	0	0	540	606	
12	0	0	0	0	539	606	
13	0	0	0	0	538	606	
14	0	0	0	0	537	606	
15	0	0	0	0	536	606	
0	0	0	0	0	536	606	
1	0	0	0	0	535	606	
2	0	0	0	0	535	606	
3	0	0	0	0	535	606	
4	0	0	0	0	534	606	
5	0	0	0	0	532	606	
6	0	0	0	0	531	606	
7	0	0	0	0	530	606	
8	0	0	0	0	531	606	
9	0	0	0	0	532	606	
10	0	0	0	0	533	606	
11	0	0	0	0	534	606	
12	0	0	0	0	534	606	
13	0	0	0	0	534	606	
14	0	0	0	0	534	606	
15	0	0	0	0	534	606	
0	0	0	0	0	534	606	
1	0	0	0	0	534	606	
2	0	0	0	0	534	606	
3	0	0	0	0	534	606	
4	0	0	0	0	532	606	
5	0	0	0	0	531	606	
6	0	0	0	0	531	606	
7	0	0	0	0	531	606	
8	0	0	0	0	531	606	
9	0	0	0	0	531	606	
10	0	0	0	0	530	606	
11	0	0	0	0	528	606	
12	0	0	0	0	529	606	
13	0	0	0	0	529	606	
14	0	0	0	0	530	606	
15	0	0	0	0	530	606	
0	0	0	0	0	531	606	
1	0	0	0	0	532	606	
2	0	0	0	0	533	606	
3	0	0	0	0	533	606	
4	0	0	0	0	535	606	
5	0	0	0	0	535	606	
6	0	0	0	0	536	606	
7	0	0	0	0	536	606	
8	0	0	0	0	536	606	
9	0	0	0	0	535	606	
10	0	0	0	0	535	606	
11	0	0	0	0	533	606	
12	0	0	0	0	532	606	
13	0	0	0	0	532	606	
14	0	0	0	0	532	606	
15	0	0	0	0	533	606	
0	0	0	0	0	534	606	
1	0	0	0	0	534	606	
2	0	0	0	0	534	606	
3	0	0	0	0	535	606	
4	0	0	0	0	536	606	
5	0	0	0	0	536	606	
6	0	0	0	0	537	606	
7	0	0	0	0	538	606	
8	0	0	0	0	540	606	
9	0	0	0	0	541	606	
10	0	0	0	0	541	606	
11	0	0	0	0	541	605	
12	0	0	0	0	542	605	
13	0	0	0	0	542	606	
14	0	0	0	0	543	606	
15	0	0	0	0	543	606	
0	0	0	0	0	544	605	
1	0	0	0	0	545	606	
2	0	0	0	0	545	606	
3	0	0	0	0	547	606	
4	0	0	0	0	547	606	
5	0	0	0	0	548	605	
6	0	0	0	0	548	606	
7	0	0	0	0	548	606	
8	0	0	0	0	548	606	
9	0	0	0	0	548	606	
10	0	0	0	0	548	605	
11	0	0	0	0	549	606	
12	0	0	0	0	550	606	
13	0	0	0	0	550	605	
14	0	0	0	0	550	605	
15	0	0	0	0	550	605	
0	0	0	0	0	550	606	
1	0	0	0	0	551	606	
2	0	0	0	0	551	606	
3	0	0	0	0	550	606	
4	0	0	0	0	550	605	
5	0	0	0	0	550	606	
6	0	0	0	0	548	606	
7	0	0	0	0	547	605	
8	0	0	0	0	546	606	
9	0	0	0	0	545	605	
10	0	0	0	0	545	606	
11	0	0	0	0	545	606	
12	0	0	0	0	545	605	
13	0	0	0	0	544	606	
14	0	0	0	0	543	605	
15	0	0	0	0	543	606	
0	0	0	0	0	541	606	
1	0	0	0	0	539	605	
2	0	0	0	0	539	606	
3	0	0	0	0	539	605	
4	0	0	0	0	537	606	
5	0	0	0	0	536	605	
6	0	0	0	0	535	606	
7	0	0	0	0	533	606	
8	0	0	0	0	531	605	
9	0	0	0	0	529	606	
10	0	0	0	0	527	605	
11	0	0	0	0	526	605	
12	0	0	0	0	524	606	
13	0	0	0	0	521	605	
14	0	0	0	0	520	606	
15	0	0	0	0	518	605	
0	0	0	0	0	515	605	
1	0	0	0	0	513	605	
2	0	0	0	0	512	605	
3	0	0	0	0	511	606	
4	0	0	0	0	508	605	
5	0	0	0	0	507	605	
6	0	0	0	0	505	605	
7	0	0	0	0	503	605	
8	0	0	0	0	500	606	
9	0	0	0	0	497	605	
10	0	0	0	0	495	605	
11	0	0	0	0	494	606	
12	0	0	0	0	492	605	
13	0	0	0	0	492	606	
14	0	0	0	0	491	605	
15	0	0	0	0	489	606	
0	0	0	0	0	488	606	
1	0	0	0	0	486	605	
2	0	0	0	0	485	605	
3	0	0	0	0	483	605	
4	0	0	0	0	482	605	
5	0	0	0	0	480	605	
6	0	0	0	0	478	605	
7	0	0	0	0	475	606	
8	0	0	0	0	472	605	
9	0	0	0	0	471	605	
10	0	0	0	0	469	605	
11	0	0	0	0	469	605	
12	0	0	0	0	469	606	
13	0	0	0	0	469	605	
14	0	0	0	0	468	605	
15	0	0	0	0	467	605	
0	0	0	0	0	465	605	
1	0	0	0	0	464	605	
2	0	0	0	0	463	605	
3	0	0	0	0	462	605	
4	0	0	0	0	462	605	
5	0	0	0	0	461	605	
6	0	0	0	0	461	606	
7	0	0	0	0	460	605	
8	0	0	0	0	459	605	
9	0	0	0	0	459	605	
10	0	0	0	0	458	605	
11	0	0	0	0	459	605	
12	0	0	0	0	458	605	
13	0	0	0	0	458	605	
14	0	0	0	0	459	605	
15	0	0	0	0	460	605	
0	0	0	0	0	462	605	
1	0	0	0	0	462	605	
2	0	0	0	0	463	605	
3	0	0	0	0	464	605	
4	0	0	0	0	464	605	
5	0	0	0	0	464	605	
6	0	0	0	0	463	605	
7	0	0	0	0	462	605	
8	0	0	0	0	461	605	
9	0	0	0	0	462	605	
10	0	0	0	0	462	605	
11	0	0	0	0	462	605	
12	0	0	0	0	463	605	
13	0	0	0	0	464	605	
14	0	0	0	0	465	605	
15	0	0	0	0	467	605	
0	0	0	0	0	467	605	
1	0	0	0	0	468	605	
2	0	0	0	0	469	605	
3	0	0	0	0	470	605	
4	0	0	0	0	471	605	
5	0	0	0	0	472	605	
6	0	0	0	0	472	605	
7	0	0	0	0	474	605	
8	0	0	0	0	475	605	
9	0	0	0	0	476	605	
10	0	0	0	0	476	605	
11	0	0	0	0	477	605	
12	0	0	0	0	477	605	
13	0	0	0	0	478	604	
14	0	0	0	0	478	605	
15	0	0	0	0	479	605	
0	0	0	0	0	479	605	
1	0	0	0	0	480	605	
2	0	0	0	0	480	604	
3	0	0	0	0	480	605	
4	0	0	0	0	480	605	
5	0	0	0	0	480	605	
6	0	0	0	0	481	605	
7	0	0	0	0	481	605	
8	0	0	0	0	481	605	
9	0	0	0	0	483	605	
10	0	0	0	0	484	605	
11	0	0	0	0	485	605	
12	0	0	0	0	486	604	
13	0	0	0	0	487	605	
14	0	0	0	0	487	605	
15	0	0	0	0	487	605	
0	0	0	0	0	486	605	
1	0	0	0	0	485	604	
2	0	0	0	0	486	605	
3	0	0	0	0	487	605	
4	0	0	0	0	487	605	
5	0	0	0	0	488	605	
6	0	0	0	0	489	605	
7	0	0	0	0	490	605	
8	0	0	0	0	491	605	
9	0	0	0	0	492	605	
10	0	0	0	0	491	605	
11	0	0	0	0	492	604	
12	0	0	0	0	491	605	
13	0	0	0	0	490	605	
14	0	0	0	0	490	605	
15	0	0	0	0	490	605	
0	0	0	0	0	489	604	
1	0	0	0	0	490	605	
2	0	0	0	0	490	605	
3	0	0	0	0	489	605	
4	0	0	0	0	489	605	
5	0	0	0	0	489	604	
6	0	0	0	0	488	604	
7	0	0	0	0	487	605	
8	0	0	0	0	487	605	
9	0	0	0	0	488	605	
10	0	0	0	0	488	604	
11	0	0	0	0	489	605	
12	0	0	0	0	489	605	
13	0	0	0	0	489	605	
14	0	0	0	0	489	604	
15	0	0	0	0	489	604	
0	0	0	0	0	489	605	
1	0	0	0	0	489	605	
2	0	0	0	0	490	605	
3	0	0	0	0	489	605	
4	0	0	0	0	488	604	
5	0	0	0	0	487	605	
6	0	0	0	0	488	605	
7	0	0	0	0	488	604	
8	0	0	0	0	488	605	
9	0	0	0	0	487	604	
10	0	0	0	0	488	605	
11	0	0	0	0	488	605	
12	0	0	0	0	488	604	
13	0	0	0	0	488	604	
14	0	0	0	0	489	604	
15	0	0	0	0	490	605	
0	0	0	0	0	491	605	
1	0	0	0	0	492	605	
2	0	0	0	0	492	605	
3	0	0	0	0	493	604	
4	0	0	0	0	494	605	
5	0	0	0	0	494	605	
6	0	0	0	0	495	604	
7	0	0	0	0	495	604	
8	0	0	0	0	495	604	
9	0	0	0	0	495	605	
10	0	0	0	0	495	604	
11	0	0	0	0	495	604	
12	0	0	0	0	494	605	
13	0	0	0	0	493	604	
14	0	0	0	0	492	605	
15	0	0	0	0	492	605	
0	0	0	0	0	492	604	
1	0	0	0	0	494	605	
2	0	0	0	0	495	604	
3	0	0	0	0	496	605	
4	0	0	0	0	496	604	
5	0	0	0	0	497	604	
6	0	0	0	0	497	604	
7	0	0	0	0	497	604	
8	0	0	0	0	498	605	
9	0	0	0	0	498	604	
10	0	0	0	0	497	604	
11	0	0	0	0	497	604	
12	0	0	0	0	497	604	
13	0	0	0	0	497	604	
14	0	0	0	0	499	604	
15	0	0	0	0	500	605	
0	0	0	0	0	501	604	
1	0	0	0	0	501	604	
2	0	0	0	0	501	604	
3	0	0	0	0	501	604	
4	0	0	0	0	501	604	
5	0	0	0	0	501	604	
6	0	0	0	0	501	604	
7	0	0	0	0	502	605	
8	0	0	0	0	501	604	
9	0	0	0	0	500	604	
10	0	0	0	0	500	604	
11	0	0	0	0	499	604	
12	0	0	0	0	500	604	
13	0	0	0	0	500	604	
14	0	0	0	0	500	604	
15	0	0	0	0	500	604	
0	0	0	0	0	499	604	
1	0	0	0	0	499	604	
2	0	0	0	0	501	604	
3	0	0	0	0	502	604	
4	0	0	0	0	503	604	
5	0	0	0	0	503	604	
6	0	0	0	0	504	604	
7	0	0	0	0	506	604	
8	0	0	0	0	507	604	
9	0	0	0	0	508	604	
10	0	0	0	0	508	604	
11	0	0	0	0	509	605	
12	0	0	0	0	509	604	
13	0	0	0	0	509	604	
14	0	0	0	0	511	604	
15	0	0	0	0	510	604	
0	0	0	0	0	508	604	
1	0	0	0	0	506	604	
2	0	0	0	0	505	604	
3	0	0	0	0	506	604	
4	0	0	0	0	507	604	
5	0	0	0	0	507	604	
6	0	0	0	0	507	604	
7	0	0	0	0	507	604	
8	0	0	0	0	507	604	
9	0	0	0	0	506	604	
10	0	0	0	0	507	604	
11	0	0	0	0	506	604	
12	0	0	0	0	506	604	
13	0	0	0	0	506	604	
14	0	0	0	0	506	604	
15	0	0	0	0	507	604	
0	0	0	0	0	506	604	
1	0	0	0	0	506	604	
2	0	0	0	0	506	604	
3	0	0	0	0	506	604	
4	0	0	0	0	506	604	
5	0	0	0	0	506	604	
6	0	0	0	0	506	604	
7	0	0	0	0	507	604	
8	0	0	0	0	508	604	
9	0	0	0	0	509	604	
10	0	0	0	0	509	604	
11	0	0	0	0	508	604	
12	0	0	0	0	507	604	
13	0	0	0	0	506	604	
14	0	0	0	0	505	604	
15	0	0	0	0	506	604	
0	0	0	0	0	506	604	
1	0	0	0	0	505	604	
2	0	0	0	0	503	604	
3	0	0	0	0	503	604	
4	0	0	0	0	503	604	
5	0	0	0	0	503	604	
6	0	0	0	0	503	604	
7	0	0	0	0	502	604	
8	0	0	0	0	501	604	
9	0	0	0	0	501	604	
10	0	0	0	0	501	604	
11	0	0	0	0	501	604	
12	0	0	0	0	501	604	
13	0	0	0	0	501	604	
14	0	0	0	0	502	604	
15	0	0	0	0	503	604	
0	0	0	0	0	504	604	
1	0	0	0	0	504	604	
2	0	0	0	0	504	604	
3	0	0	0	0	504	604	
4	0	0	0	0	504	604	
5	0	0	0	0	504	604	
6	0	0	0	0	504	604	
7	0	0	0	0	504	604	
8	0	0	0	0	505	604	
9	0	0	0	0	505	604	
10	0	0	0	0	504	604	
11	0	0	0	0	504	604	
12	0	0	0	0	505	604	
13	0	0	0	0	506	604	
14	0	0	0	0	507	604	
15	0	0	0	0	508	604	
0	0	0	0	0	508	604	
1	0	0	0	0	510	604	
2	0	0	0	0	510	604	
3	0	0	0	0	510	604	
4	0	0	0	0	509	604	
5	0	0	0	0	509	604	
6	0	0	0	0	508	604	
7	0	0	0	0	508	604	
8	0	0	0	0	508	604	
9	0	0	0	0	509	604	
10	0	0	0	0	508	604	
11	0	0	0	0	509	604	
12	0	0	0	0	508	604	
13	0	0	0	0	508	604	
14	0	0	0	0	508	604	
15	0	0	0	0	508	604	
0	0	0	0	0	508	604	
1	0	0	0	0	507	604	
2	0	0	0	0	506	604	
3	0	0	0	0	507	604	
4	0	0	0	0	506	604	
5	0	0	0	0	505	604	
6	0	0	0	0	504	604	
7	0	0	0	0	505	604	
8	0	0	0	0	505	604	
9	0	0	0	0	506	604	
10	0	0	0	0	507	604	
11	0	0	0	0	507	604	
12	0	0	0	0	506	604	
13	0	0	0	0	505	604	
14	0	0	0	0	504	604	
15	0	0	0	0	504	604	
0	0	0	0	0	505	604	
1	0	0	0	0	504	604	
2	0	0	0	0	505	604	
3	0	0	0	0	504	603	
4	0	0	0	0	504	604	
5	0	0	0	0	504	604	
6	0	0	0	0	504	604	
7	0	0	0	0	502	604	
8	0	0	0	0	501	604	
9	0	0	0	0	500	604	
10	0	0	0	0	499	604	
11	0	0	0	0	499	604	
12	0	0	0	0	499	604	
13	0	0	0	0	500	604	
14	0	0	0	0	502	604	
15	0	0	0	0	502	604	
0	0	0	0	0	503	604	
1	0	0	0	0	504	604	
2	0	0	0	0	505	604	
3	0	0	0	0	505	604	
4	0	0	0	0	504	604	
5	0	0	0	0	504	604	
6	0	0	0	0	503	604	
7	0	0	0	0	502	604	
8	0	0	0	0	501	604	
9	0	0	0	0	501	604	
10	0	0	0	0	501	604	
11	0	0	0	0	501	604	
12	0	0	0	0	502	604	
13	0	0	0	0	503	604	
14	0	0	0	0	503	604	
15	0	0	0	0	504	604	
0	0	0	0	0	506	604	
1	0	0	0	0	507	604	
2	0	0	0	0	507	604	
3	0	0	0	0	506	604	
4	0	0	0	0	506	604	
5	0	0	0	0	506	604	
6	0	0	0	0	506	604	
7	0	0	0	0	505	604	
8	0	0	0	0	505	604	
9	0	0	0	0	506	604	
10	0	0	0	0	507	604	
11	0	0	0	0	507	604	
12	0	0	0	0	507	604	
13	0	0	0	0	508	604	
14	0	0	0	0	509	604	
15	0	0	0	0	510	604	
0	0	0	0	0	509	604	
1	0	0	0	0	510	604	
2	0	0	0	0	511	604	
3	0	0	0	0	510	604	
4	0	0	0	0	511	604	
5	0	0	0	0	511	604	
6	0	0	0	0	510	604	
7	0	0	0	0	510	604	
8	0	0	0	0	511	604	
9	0	0	0	0	511	604	
10	0	0	0	0	511	604	
11	0	0	0	0	511	604	
12	0	0	0	0	512	604	
13	0	0	0	0	513	604	
14	0	0	0	0	513	604	
15	0	0	0	0	513	604	
0	0	0	0	0	514	604	
1	0	0	0	0	515	604	
2	0	0	0	0	515	604	
3	0	0	0	0	515	604	
4	0	0	0	0	515	604	
5	0	0	0	0	516	604	
6	0	0	0	0	516	604	
7	0	0	0	0	515	604	
8	0	0	0	0	514	604	
9	0	0	0	0	513	604	
10	0	0	0	0	512	604	
11	0	0	0	0	512	604	
12	0	0	0	0	511	604	
13	0	0	0	0	511	604	
14	0	0	0	0	511	604	
15	0	0	0	0	511	604	
0	0	0	0	0	511	604	
1	0	0	0	0	513	604	
2	0	0	0	0	514	604	
3	0	0	0	0	515	603	
4	0	0	0	0	515	604	
5	0	0	0	0	516	604	
6	0	0	0	0	517	604	
7	0	0	0	0	517	604	
8	0	0	0	0	516	604	
9	0	0	0	0	516	604	
10	0	0	0	0	515	604	
11	0	0	0	0	513	604	
12	0	0	0	0	512	604	
13	0	0	0	0	511	603	
14	0	0	0	0	512	604	
15	0	0	0	0	511	604	
0	0	0	0	0	511	604	
1	0	0	0	0	511	604	
2	0	0	0	0	512	604	
3	0	0	0	0	513	604	
4	0	0	0	0	513	604	
5	0	0	0	0	514	604	
6	0	0	0	0	513	604	
7	0	0	0	0	514	604	
8	0	0	0	0	514	604	
9	0	0	0	0	514	604	
10	0	0	0	0	514	604	
11	0	0	0	0	513	604	
12	0	0	0	0	511	604	
13	0	0	0	0	510	604	
14	0	0	0	0	509	604	
15	0	0	0	0	508	604	
0	0	0	0	0	508	604	
1	0	0	0	0	508	603	
2	0	0	0	0	508	604	
3	0	0	0	0	507	604	
4	0	0	0	0	507	604	
5	0	0	0	0	507	604	
6	0	0	0	0	505	603	
7	0	0	0	0	505	604	
8	0	0	0	0	505	604	
9	0	0	0	0	504	604	
10	0	0	0	0	504	604	
11	0	0	0	0	504	603	
12	0	0	0	0	504	604	
13	0	0	0	0	504	604	
14	0	0	0	0	504	604	
15	0	0	0	0	505	604	
0	0	0	0	0	505	603	
1	0	0	0	0	505	604	
2	0	0	0	0	506	604	
3	0	0	0	0	506	604	
4	0	0	0	0	507	604	
5	0	0	0	0	507	603	
6	0	0	0	0	507	604	
7	0	0	0	0	505	604	
8	0	0	0	0	505	604	
9	0	0	0	0	506	604	
10	0	0	0	0	505	603	
11	0	0	0	0	505	604	
12	0	0	0	0	504	604	
13	0	0	0	0	505	604	
14	0	0	0	0	506	604	
15	0	0	0	0	505	604	
0	0	0	0	0	505	604	
1	0	0	0	0	505	604	
2	0	0	0	0	505	603	
3	0	0	0	0	507	604	
4	0	0	0	0	508	603	
5	0	0	0	0	508	604	
6	0	0	0	0	508	604	
7	0	0	0	0	507	604	
8	0	0	0	0	507	604	
9	0	0	0	0	508	603	
10	0	0	0	0	509	604	
11	0	0	0	0	510	603	
12	0	0	0	0	510	603	
13	0	0	0	0	509	603	
14	0	0	0	0	510	603	
15	0	0	0	0	511	604	
0	0	0	0	0	511	604	
1	0	0	0	0	511	604	
2	0	0	0	0	511	604	
3	0	0	0	0	510	603	
4	0	0	0	0	509	604	
5	0	0	0	0	510	603	
6	0	0	0	0	510	604	
7	0	0	0	0	511	603	
8	0	0	0	0	511	603	
9	0	0	0	0	511	604	
10	0	0	0	0	510	603	
11	0	0	0	0	511	604	
12	0	0	0	0	512	603	
13	0	0	0	0	511	603	
14	0	0	0	0	512	604	
15	0	0	0	0	512	603	
0	0	0	0	0	514	603	
1	0	0	0	0	514	603	
2	0	0	0	0	515	603	
3	0	0	0	0	516	604	
4	0	0	0	0	517	603	
5	0	0	0	0	518	603	
6	0	0	0	0	520	603	
7	0	0	0	0	520	603	
8	0	0	0	0	521	603	
9	0	0	0	0	521	603	
10	0	0	0	0	520	603	
11	0	0	0	0	520	603	
12	0	0	0	0	519	603	
13	0	0	0	0	519	604	
14	0	0	0	0	519	603	
15	0	0	0	0	519	603	
0	0	0	0	0	518	603	
1	0	0	0	0	518	603	
2	0	0	0	0	518	603	
3	0	0	0	0	517	603	
4	0	0	0	0	517	603	
5	0	0	0	0	517	603	
6	0	0	0	0	517	603	
7	0	0	0	0	518	603	
8	0	0	0	0	518	603	
9	0	0	0	0	518	603	
10	0	0	0	0	517	603	
11	0	0	0	0	517	603	
12	0	0	0	0	516	603	
13	0	0	0	0	515	603	
14	0	0	0	0	515	603	
15	0	0	0	0	515	603	
0	0	0	0	0	515	603	
1	0	0	0	0	515	603	
2	0	0	0	0	515	603	
3	0	0	0	0	513	603	
4	0	0	0	0	512	603	
5	0	0	0	0	512	603	
6	0	0	0	0	511	603	
7	0	0	0	0	511	603	
8	0	0	0	0	512	603	
9	0	0	0	0	512	603	
10	0	0	0	0	512	603	
11	0	0	0	0	512	603	
12	0	0	0	0	512	603	
13	0	0	0	0	511	603	
14	0	0	0	0	511	603	
15	0	0	0	0	511	603	
0	0	0	0	0	512	603	
1	0	0	0	0	513	603	
2	0	0	0	0	513	603	
