
-2.0508e-05
-1.4648e-05
-1.1719e-05
-1.1719e-05
-1.4648e-05
-1.4648e-05
-1.4648e-05
-1.4648e-05
-1.7578e-05
-1.4648e-05
-1.4648e-05
-1.1719e-05
-8.7891e-06
-2.9297e-06
0
2.9297e-06
5.8594e-06
8.7891e-06
8.7891e-06
8.7891e-06
8.7891e-06
8.7891e-06
8.7891e-06
8.7891e-06
8.7891e-06
8.7891e-06
8.7891e-06
5.8594e-06
2.9297e-06
2.9297e-06
5.8594e-06
8.7891e-06
8.7891e-06
8.7891e-06
8.7891e-06
1.1719e-05
1.1719e-05
1.7578e-05
1.7578e-05
1.1719e-05
1.1719e-05
1.1719e-05
1.4648e-05
1.4648e-05
1.1719e-05
8.7891e-06
8.7891e-06
1.1719e-05
1.1719e-05
1.1719e-05
1.1719e-05
1.4648e-05
1.1719e-05
1.1719e-05
8.7891e-06
8.7891e-06
2.9297e-06
2.9297e-06
0
0
-5.8594e-06
-8.7891e-06
-5.8594e-06
-2.9297e-06
-2.9297e-06
-2.9297e-06
-5.8594e-06
-8.7891e-06
-1.1719e-05
-1.1719e-05
-1.4648e-05
-1.4648e-05
-1.4648e-05
-1.7578e-05
-2.0508e-05
-2.3437e-05
-2.3437e-05
-2.0508e-05
-2.0508e-05
-1.4648e-05
-8.7891e-06
-5.8594e-06
-2.9297e-06
0
0
0
0
0
2.9297e-06
2.9297e-06
2.9297e-06
2.9297e-06
2.9297e-06
8.7891e-06
5.8594e-06
8.7891e-06
5.8594e-06
5.8594e-06
8.7891e-06
8.7891e-06
5.8594e-06
2.9297e-06
0
0
0
-2.9297e-06
0
-2.9297e-06
-2.9297e-06
-5.8594e-06
-5.8594e-06
-1.1719e-05
-1.1719e-05
-8.7891e-06
-1.1719e-05
-8.7891e-06
-1.1719e-05
-1.1719e-05
-1.4648e-05
-1.4648e-05
-1.4648e-05
-1.4648e-05
-1.4648e-05
-1.7578e-05
-1.7578e-05
-2.0508e-05
-2.3437e-05
-2.3437e-05
-2.6367e-05
-2.3437e-05
-2.0508e-05
-2.0508e-05
-2.0508e-05
-2.0508e-05
-2.0508e-05
-2.0508e-05
-1.4648e-05
-8.7891e-06
-5.8594e-06
-2.9297e-06
0
2.9297e-06
0
0
0
2.9297e-06
2.9297e-06
8.7891e-06
8.7891e-06
1.1719e-05
1.4648e-05
1.7578e-05
1.7578e-05
1.7578e-05
1.7578e-05
2.0508e-05
2.0508e-05
2.0508e-05
2.3437e-05
2.0508e-05
2.0508e-05
2.0508e-05
1.7578e-05
1.7578e-05
1.1719e-05
5.8594e-06
2.9297e-06
2.9297e-06
5.8594e-06
5.8594e-06
2.9297e-06
0
-2.9297e-06
-8.7891e-06
-1.4648e-05
-1.4648e-05
-1.4648e-05
-1.4648e-05
-1.1719e-05
-8.7891e-06
-5.8594e-06
-2.9297e-06
-2.9297e-06
2.9297e-06
1.7578e-05
2.9297e-05
4.1016e-05
4.9805e-05
5.8594e-05
6.4453e-05
7.3242e-05
8.7891e-05
0.00010254
0.00012012
0.00013184
0.00014941
0.00016406
0.00018164
0.00019629
0.00021094
0.00022266
0.00023437
0.00024316
0.00025195
0.00025488
0.00025488
0.00024902
0.00023437
0.00021973
0.00019043
0.00016406
0.00012891
8.2031e-05
3.5156e-05
-2.0508e-05
-7.6172e-05
-0.00012891
-0.00018457
-0.00023437
-0.00028418
-0.00032812
-0.00036621
-0.00039844
-0.00041895
-0.00043359
-0.00043652
-0.00043066
-0.00042187
-0.00041016
-0.00039258
-0.000375
-0.00035449
-0.00033398
-0.00031348
-0.00029297
-0.00027539
-0.00025781
-0.0002373
-0.00022266
-0.00020508
-0.0001875
-0.00017285
-0.0001582
-0.00014062
-0.00012598
-0.0001084
-9.668e-05
-8.4961e-05
-7.3242e-05
-6.1523e-05
-4.9805e-05
-4.1016e-05
-2.9297e-05
-2.0508e-05
-1.4648e-05
-8.7891e-06
-2.9297e-06
0
5.8594e-06
5.8594e-06
1.1719e-05
1.1719e-05
1.4648e-05
1.7578e-05
2.0508e-05
2.3437e-05
2.6367e-05
3.2227e-05
3.5156e-05
3.5156e-05
3.5156e-05
3.5156e-05
4.1016e-05
4.3945e-05
4.3945e-05
4.6875e-05
4.3945e-05
4.3945e-05
4.3945e-05
4.3945e-05
4.3945e-05
4.3945e-05
4.1016e-05
4.1016e-05
4.6875e-05
4.9805e-05
5.2734e-05
5.2734e-05
4.9805e-05
4.9805e-05
4.9805e-05
4.3945e-05
4.3945e-05
3.8086e-05
3.5156e-05
3.5156e-05
3.5156e-05
3.5156e-05
3.8086e-05
4.1016e-05
4.1016e-05
4.1016e-05
3.8086e-05
3.8086e-05
3.8086e-05
4.1016e-05
4.1016e-05
4.1016e-05
4.1016e-05
4.1016e-05
4.1016e-05
4.3945e-05
4.6875e-05
4.9805e-05
4.9805e-05
5.5664e-05
5.8594e-05
6.1523e-05
6.1523e-05
6.4453e-05
6.7383e-05
6.7383e-05
6.7383e-05
6.7383e-05
6.4453e-05
6.4453e-05
6.4453e-05
6.1523e-05
6.1523e-05
5.8594e-05
5.8594e-05
5.8594e-05
6.4453e-05
6.7383e-05
6.7383e-05
6.7383e-05
7.0312e-05
7.0312e-05
7.0312e-05
7.3242e-05
7.0312e-05
7.0312e-05
6.7383e-05
6.4453e-05
6.7383e-05
7.0312e-05
7.3242e-05
7.6172e-05
7.9102e-05
8.2031e-05
8.4961e-05
8.4961e-05
8.4961e-05
8.4961e-05
8.7891e-05
9.082e-05
9.082e-05
9.375e-05
9.375e-05
9.375e-05
9.375e-05
9.375e-05
9.375e-05
9.375e-05
8.7891e-05
8.7891e-05
8.7891e-05
9.082e-05
9.082e-05
9.082e-05
8.7891e-05
9.082e-05
9.082e-05
9.082e-05
9.375e-05
9.668e-05
9.375e-05
9.375e-05
9.375e-05
9.668e-05
0.00010254
0.00010254
0.00010547
0.0001084
0.00011133
0.00011426
0.00011719
0.00012012
0.00012012
0.00012305
0.00012598
0.00012891
0.00012891
0.00012891
0.00012891
0.00012598
0.00012305
0.00012012
0.00012012
0.00012012
0.00012012
0.00011719
0.00012012
0.00012012
0.00012012
0.00011719
0.00012012
0.00012012
0.00012012
0.00012012
0.00011719
0.00011426
0.00011426
0.00011133
0.00010547
0.00010254
9.668e-05
9.668e-05
9.668e-05
9.375e-05
9.375e-05
8.7891e-05
8.4961e-05
8.2031e-05
7.9102e-05
7.3242e-05
6.7383e-05
6.1523e-05
5.5664e-05
4.6875e-05
4.6875e-05
4.3945e-05
3.5156e-05
2.9297e-05
2.0508e-05
1.1719e-05
5.8594e-06
-2.9297e-06
-8.7891e-06
-1.4648e-05
-2.3437e-05
-2.6367e-05
-3.2227e-05
-3.8086e-05
-4.6875e-05
-4.9805e-05
-5.5664e-05
-6.4453e-05
-7.0312e-05
-7.6172e-05
-7.6172e-05
-7.9102e-05
-8.4961e-05
-8.7891e-05
-9.375e-05
-9.668e-05
-9.668e-05
-0.00010254
-0.0001084
-0.00011133
-0.00011719
-0.00011719
-0.00012012
-0.00012012
-0.00012012
-0.00012012
-0.00012012
-0.00012012
-0.00012598
-0.00013184
-0.00013477
-0.0001377
-0.0001377
-0.00014062
-0.00014355
-0.00014355
-0.00014062
-0.0001377
-0.0001377
-0.00014062
-0.00014062
-0.00014062
-0.0001377
-0.0001377
-0.0001377
-0.0001377
-0.0001377
-0.00014062
-0.0001377
-0.0001377
-0.0001377
-0.00014355
-0.00014648
-0.00014355
-0.00014355
-0.00014062
-0.0001377
-0.00013477
-0.00012891
-0.00012305
-0.00012012
-0.00012012
-0.00012305
-0.00012305
-0.00012305
-0.00012305
-0.00012891
-0.00012598
-0.00012598
-0.00012891
-0.00012891
-0.00012891
-0.00013184
-0.00012891
-0.00012598
-0.00011719
-0.00011719
-0.00011426
-0.00011133
-0.00011133
-0.00010547
-0.00010547
-0.00010547
-0.00010254
-9.9609e-05
-9.668e-05
-9.375e-05
-9.375e-05
-9.375e-05
-9.082e-05
-9.082e-05
-8.7891e-05
-8.2031e-05
-7.9102e-05
-7.9102e-05
-7.9102e-05
-7.6172e-05
-7.3242e-05
-7.3242e-05
-7.3242e-05
-7.3242e-05
-7.3242e-05
-7.6172e-05
-7.6172e-05
-7.3242e-05
-7.0312e-05
-7.3242e-05
-7.3242e-05
-7.3242e-05
-7.3242e-05
-7.3242e-05
-6.7383e-05
-6.7383e-05
-6.1523e-05
-5.8594e-05
-6.1523e-05
-6.4453e-05
-7.0312e-05
-6.7383e-05
-6.4453e-05
-6.4453e-05
-6.4453e-05
-6.4453e-05
-6.4453e-05
-6.4453e-05
-6.1523e-05
-6.1523e-05
-5.8594e-05
-5.5664e-05
-5.8594e-05
-5.5664e-05
-5.2734e-05
-4.9805e-05
-4.9805e-05
-4.9805e-05
-4.9805e-05
-5.2734e-05
-5.5664e-05
-5.5664e-05
-5.8594e-05
-6.1523e-05
-6.1523e-05
-5.8594e-05
-5.8594e-05
-5.2734e-05
-5.2734e-05
-4.9805e-05
-5.2734e-05
-4.9805e-05
-5.2734e-05
-4.9805e-05
-4.9805e-05
-4.6875e-05
-4.3945e-05
-4.3945e-05
-4.1016e-05
-3.8086e-05
-3.8086e-05
-3.5156e-05
-3.5156e-05
-3.8086e-05
-3.8086e-05
-4.1016e-05
-4.1016e-05
-4.1016e-05
-4.1016e-05
-3.8086e-05
-4.1016e-05
-4.3945e-05
-4.6875e-05
-4.3945e-05
-4.3945e-05
-4.1016e-05
-3.8086e-05
-4.1016e-05
-4.3945e-05
-4.6875e-05
-4.3945e-05
-4.3945e-05
-4.3945e-05
-4.6875e-05
-4.9805e-05
-5.2734e-05
-5.5664e-05
-5.5664e-05
-5.2734e-05
-5.2734e-05
-5.2734e-05
-4.9805e-05
-4.6875e-05
-4.6875e-05
-4.3945e-05
-4.1016e-05
-3.8086e-05
-3.8086e-05
-3.5156e-05
-3.2227e-05
-2.9297e-05
-2.6367e-05
-2.6367e-05
-2.6367e-05
-2.6367e-05
-2.3437e-05
-2.3437e-05
-2.3437e-05
-2.3437e-05
-2.3437e-05
-2.3437e-05
-2.3437e-05
-2.3437e-05
-1.7578e-05
-1.1719e-05
-8.7891e-06
-8.7891e-06
-5.8594e-06
-2.9297e-06
-2.9297e-06
0
2.9297e-06
2.9297e-06
0
0
-2.9297e-06
-2.9297e-06
-2.9297e-06
-2.9297e-06
-2.9297e-06
-5.8594e-06
-5.8594e-06
-8.7891e-06
-8.7891e-06
-1.1719e-05
-1.1719e-05
-8.7891e-06
-5.8594e-06
-5.8594e-06
-2.9297e-06
-2.9297e-06
-2.9297e-06
-2.9297e-06
-2.9297e-06
-2.9297e-06
-5.8594e-06
-8.7891e-06
-8.7891e-06
-5.8594e-06
-5.8594e-06
-2.9297e-06
-2.9297e-06
-5.8594e-06
-5.8594e-06
-8.7891e-06
-1.1719e-05
-1.4648e-05
-1.1719e-05
-1.4648e-05
-2.0508e-05
-2.3437e-05
-2.0508e-05
-2.0508e-05
-2.0508e-05
-1.7578e-05
-1.4648e-05
-1.1719e-05
-5.8594e-06
-2.9297e-06
0
2.9297e-06
5.8594e-06
2.9297e-06
0
0
0
-2.9297e-06
-2.9297e-06
-5.8594e-06
-8.7891e-06
-5.8594e-06
-5.8594e-06
-5.8594e-06
-5.8594e-06
-5.8594e-06
-8.7891e-06
-1.1719e-05
-1.4648e-05
-1.7578e-05
-2.0508e-05
-2.0508e-05
-2.0508e-05
-2.0508e-05
-2.0508e-05
-2.3437e-05
-2.3437e-05
-2.0508e-05
-2.0508e-05
-2.0508e-05
-2.0508e-05
-2.3437e-05
-2.3437e-05
-2.6367e-05
-2.6367e-05
-2.9297e-05
-2.9297e-05
-3.2227e-05
-2.9297e-05
-3.2227e-05
-2.9297e-05
-2.9297e-05
-3.5156e-05
-3.8086e-05
-3.8086e-05
-3.5156e-05
-3.2227e-05
-3.5156e-05
-3.2227e-05
-2.9297e-05
-2.9297e-05
-2.9297e-05
-2.6367e-05
-2.3437e-05
-2.0508e-05
-2.0508e-05
-1.4648e-05
-1.4648e-05
-1.7578e-05
-1.7578e-05
-2.0508e-05
-2.3437e-05
-2.9297e-05
-3.8086e-05
-4.1016e-05
-4.1016e-05
-3.8086e-05
-3.8086e-05
-3.8086e-05
-3.8086e-05
-3.8086e-05
-3.5156e-05
-3.5156e-05
-3.5156e-05
-3.2227e-05
-3.2227e-05
-3.2227e-05
-2.9297e-05
-2.6367e-05
-2.3437e-05
-2.3437e-05
-2.0508e-05
-1.7578e-05
-1.4648e-05
-1.4648e-05
-1.1719e-05
-1.1719e-05
-1.1719e-05
-1.4648e-05
-1.4648e-05
-1.4648e-05
-1.4648e-05
-1.7578e-05
-1.4648e-05
-1.1719e-05
-1.1719e-05
-8.7891e-06
-2.9297e-06
0
5.8594e-06
5.8594e-06
5.8594e-06
2.9297e-06
0
0
0
0
0
0
0
0
2.9297e-06
5.8594e-06
8.7891e-06
8.7891e-06
8.7891e-06
8.7891e-06
1.1719e-05
1.1719e-05
8.7891e-06
8.7891e-06
1.1719e-05
1.4648e-05
1.7578e-05
1.7578e-05
1.7578e-05
2.0508e-05
2.3437e-05
2.0508e-05
2.3437e-05
2.0508e-05
2.0508e-05
2.0508e-05
1.7578e-05
1.7578e-05
1.1719e-05
1.1719e-05
8.7891e-06
5.8594e-06
2.9297e-06
2.9297e-06
2.9297e-06
0
2.9297e-06
5.8594e-06
5.8594e-06
2.9297e-06
5.8594e-06
2.9297e-06
2.9297e-06
2.9297e-06
2.9297e-06
2.9297e-06
2.9297e-06
2.9297e-06
0
0
-2.9297e-06
-5.8594e-06
-5.8594e-06
-5.8594e-06
-5.8594e-06
-5.8594e-06
-5.8594e-06
-2.9297e-06
-2.9297e-06
-5.8594e-06
-8.7891e-06
-8.7891e-06
-8.7891e-06
-8.7891e-06
-1.1719e-05
-1.4648e-05
-1.7578e-05
-1.7578e-05
-1.7578e-05
-1.7578e-05
-1.7578e-05
-1.7578e-05
-1.4648e-05
-1.1719e-05
-1.1719e-05
-1.1719e-05
-1.4648e-05
-1.4648e-05
-1.4648e-05
-2.0508e-05
-2.0508e-05
-2.0508e-05
-1.7578e-05
-1.7578e-05
-1.7578e-05
-1.7578e-05
-1.7578e-05
-1.4648e-05
-1.4648e-05
-1.7578e-05
-1.7578e-05
-1.7578e-05
-1.4648e-05
-1.1719e-05
-1.1719e-05
-1.1719e-05
-1.1719e-05
-1.1719e-05
-1.1719e-05
-1.1719e-05
-8.7891e-06
-8.7891e-06
-8.7891e-06
-2.9297e-06
0
2.9297e-06
5.8594e-06
8.7891e-06
8.7891e-06
8.7891e-06
8.7891e-06
8.7891e-06
8.7891e-06
8.7891e-06
8.7891e-06
8.7891e-06
1.1719e-05
1.4648e-05
1.7578e-05
1.7578e-05
1.7578e-05
1.7578e-05
1.7578e-05
2.0508e-05
2.0508e-05
2.0508e-05
1.7578e-05
1.7578e-05
1.1719e-05
1.1719e-05
1.4648e-05
1.1719e-05
1.1719e-05
1.1719e-05
1.1719e-05
1.1719e-05
1.1719e-05
1.1719e-05
1.1719e-05
1.4648e-05
1.7578e-05
1.7578e-05
1.7578e-05
1.7578e-05
1.1719e-05
8.7891e-06
8.7891e-06
5.8594e-06
0
0
0
0
0
0
0
2.9297e-06
8.7891e-06
1.4648e-05
2.0508e-05
2.3437e-05
2.6367e-05
2.6367e-05
2.6367e-05
2.3437e-05
2.3437e-05
2.3437e-05
2.3437e-05
2.3437e-05
2.3437e-05
2.6367e-05
2.6367e-05
3.2227e-05
3.2227e-05
3.2227e-05
3.2227e-05
2.9297e-05
2.6367e-05
2.3437e-05
2.0508e-05
1.7578e-05
1.4648e-05
8.7891e-06
5.8594e-06
2.9297e-06
2.9297e-06
2.9297e-06
2.9297e-06
5.8594e-06
0
0
-2.9297e-06
-8.7891e-06
-1.1719e-05
-2.0508e-05
-2.3437e-05
-2.3437e-05
-2.9297e-05
-2.9297e-05
-3.5156e-05
-3.8086e-05
-3.8086e-05
-3.8086e-05
-3.8086e-05
-3.8086e-05
-3.8086e-05
-3.8086e-05
-3.5156e-05
-3.2227e-05
-3.2227e-05
-2.9297e-05
-2.9297e-05
-2.9297e-05
-2.9297e-05
-2.9297e-05
-2.9297e-05
-2.6367e-05
-2.3437e-05
-2.0508e-05
-2.0508e-05
-2.0508e-05
-1.7578e-05
-1.7578e-05
-1.4648e-05
-1.1719e-05
-8.7891e-06
-8.7891e-06
-5.8594e-06
-5.8594e-06
-2.9297e-06
-5.8594e-06
-8.7891e-06
-8.7891e-06
-8.7891e-06
-5.8594e-06
-5.8594e-06
-5.8594e-06
-5.8594e-06
-2.9297e-06
-5.8594e-06
-2.9297e-06
-2.9297e-06
0
0
0
0
-5.8594e-06
-5.8594e-06
-5.8594e-06
-5.8594e-06
-5.8594e-06
-5.8594e-06
-8.7891e-06
-5.8594e-06
-2.9297e-06
-5.8594e-06
-5.8594e-06
-5.8594e-06
-2.9297e-06
2.9297e-06
8.7891e-06
2.0508e-05
2.9297e-05
4.1016e-05
5.5664e-05
6.7383e-05
7.9102e-05
9.375e-05
0.00011133
0.00012891
0.00014941
0.00016406
0.00018164
0.00019043
0.00020508
0.00021973
0.00023145
0.00024023
0.00024902
0.00025488
0.00025781
0.00025781
0.00025488
0.00024609
0.00023145
0.00021094
0.00018457
0.00015527
0.00011719
7.3242e-05
2.3437e-05
-2.6367e-05
-7.6172e-05
-0.00012598
-0.00017578
-0.00022559
-0.00026953
-0.00031055
-0.00034863
-0.000375
-0.00040137
-0.00041602
-0.00042187
-0.00041602
-0.00040723
-0.00039258
-0.000375
-0.00036035
-0.0003457
-0.00032812
-0.00030469
-0.00028711
-0.00027246
-0.00025488
-0.0002373
-0.00022559
-0.00020801
-0.00019629
-0.00018457
-0.00016992
-0.00015527
-0.00014062
-0.00012305
-0.00010547
-9.375e-05
-8.2031e-05
-7.3242e-05
-6.4453e-05
-5.8594e-05
-4.9805e-05
-4.3945e-05
-4.1016e-05
-3.8086e-05
-2.9297e-05
-2.3437e-05
-1.4648e-05
-8.7891e-06
-5.8594e-06
-5.8594e-06
0
0
5.8594e-06
8.7891e-06
1.1719e-05
1.1719e-05
1.1719e-05
1.7578e-05
1.7578e-05
2.0508e-05
2.0508e-05
2.0508e-05
2.0508e-05
2.0508e-05
2.3437e-05
2.3437e-05
2.3437e-05
2.6367e-05
2.6367e-05
3.2227e-05
3.5156e-05
3.5156e-05
3.8086e-05
4.1016e-05
4.3945e-05
4.3945e-05
4.1016e-05
4.3945e-05
4.3945e-05
4.6875e-05
4.9805e-05
4.9805e-05
5.2734e-05
5.2734e-05
5.5664e-05
5.8594e-05
6.1523e-05
6.4453e-05
6.4453e-05
7.0312e-05
7.0312e-05
7.0312e-05
7.0312e-05
7.0312e-05
7.3242e-05
7.3242e-05
7.6172e-05
7.9102e-05
8.2031e-05
8.2031e-05
8.2031e-05
8.2031e-05
8.7891e-05
8.7891e-05
8.7891e-05
8.7891e-05
8.7891e-05
8.7891e-05
9.082e-05
9.082e-05
9.375e-05
9.375e-05
9.375e-05
9.375e-05
9.375e-05
9.668e-05
9.9609e-05
9.9609e-05
0.00010254
0.00010254
0.00010547
0.00010547
0.00010547
0.00010254
0.00010254
9.668e-05
9.375e-05
9.082e-05
8.7891e-05
8.2031e-05
8.2031e-05
8.2031e-05
8.4961e-05
8.7891e-05
8.7891e-05
8.7891e-05
9.082e-05
9.082e-05
8.7891e-05
8.4961e-05
8.2031e-05
8.2031e-05
8.2031e-05
8.2031e-05
8.2031e-05
7.9102e-05
7.9102e-05
7.6172e-05
7.3242e-05
7.6172e-05
7.6172e-05
7.6172e-05
7.6172e-05
7.6172e-05
7.6172e-05
7.6172e-05
7.6172e-05
7.6172e-05
7.6172e-05
7.6172e-05
7.3242e-05
7.0312e-05
7.0312e-05
7.0312e-05
7.3242e-05
7.0312e-05
7.0312e-05
7.0312e-05
7.0312e-05
7.3242e-05
7.3242e-05
7.3242e-05
7.3242e-05
7.0312e-05
6.7383e-05
6.4453e-05
5.8594e-05
6.1523e-05
6.4453e-05
7.0312e-05
7.0312e-05
7.3242e-05
7.0312e-05
7.0312e-05
6.7383e-05
7.0312e-05
7.0312e-05
7.3242e-05
7.3242e-05
7.6172e-05
7.9102e-05
8.2031e-05
8.2031e-05
8.2031e-05
8.2031e-05
7.9102e-05
7.9102e-05
7.3242e-05
7.0312e-05
7.0312e-05
7.0312e-05
7.0312e-05
7.0312e-05
7.0312e-05
7.0312e-05
7.0312e-05
7.0312e-05
7.0312e-05
7.0312e-05
7.0312e-05
6.7383e-05
6.4453e-05
5.8594e-05
5.5664e-05
5.2734e-05
4.9805e-05
4.3945e-05
4.3945e-05
4.1016e-05
4.1016e-05
3.8086e-05
3.5156e-05
2.9297e-05
2.3437e-05
2.0508e-05
1.4648e-05
8.7891e-06
2.9297e-06
-2.9297e-06
-5.8594e-06
-1.4648e-05
-1.7578e-05
-2.3437e-05
-2.6367e-05
-2.9297e-05
-3.5156e-05
-4.1016e-05
-4.3945e-05
-4.6875e-05
-4.6875e-05
-4.6875e-05
-5.2734e-05
-5.8594e-05
-6.4453e-05
-6.7383e-05
-7.0312e-05
-7.3242e-05
-7.9102e-05
-8.7891e-05
-9.082e-05
-9.375e-05
-9.375e-05
-9.668e-05
-9.668e-05
-9.9609e-05
-9.9609e-05
-0.00010254
-0.00010254
-0.00010254
-0.00010254
-0.00010547
-0.0001084
-0.00011426
-0.00011719
-0.00011719
-0.00011719
-0.00011719
-0.00011719
-0.00012012
-0.00012012
-0.00012012
-0.00012598
-0.00012598
-0.00012305
-0.00012305
-0.00012891
-0.00012891
-0.00012891
-0.00012891
-0.00012598
-0.00012598
-0.00012891
-0.00012598
-0.00012598
-0.00012012
-0.00011719
-0.00011719
-0.00011719
-0.00011719
-0.00011426
-0.00011133
-0.0001084
-0.00010547
-0.00010254
-9.9609e-05
-0.00010254
-9.9609e-05
-9.668e-05
-9.668e-05
-9.375e-05
-9.668e-05
-9.375e-05
-9.375e-05
-9.082e-05
-9.082e-05
-9.375e-05
-9.082e-05
-9.375e-05
-9.082e-05
-8.7891e-05
-8.7891e-05
-8.7891e-05
-8.7891e-05
-8.7891e-05
-8.4961e-05
-8.4961e-05
-8.2031e-05
-7.9102e-05
-7.6172e-05
-7.0312e-05
-6.4453e-05
-6.1523e-05
-6.1523e-05
-6.1523e-05
-6.4453e-05
-6.4453e-05
-6.4453e-05
-6.1523e-05
-6.4453e-05
-6.1523e-05
-6.1523e-05
-6.1523e-05
-6.4453e-05
-6.7383e-05
-6.4453e-05
-6.7383e-05
-7.0312e-05
-6.7383e-05
-6.7383e-05
-6.7383e-05
-6.7383e-05
-7.0312e-05
-7.3242e-05
-7.3242e-05
-7.3242e-05
-7.3242e-05
-7.6172e-05
-7.6172e-05
-7.6172e-05
-7.6172e-05
-7.6172e-05
-7.3242e-05
-7.3242e-05
-7.6172e-05
-7.6172e-05
-7.9102e-05
-7.9102e-05
-7.9102e-05
-7.6172e-05
-7.6172e-05
-7.6172e-05
-7.6172e-05
-7.6172e-05
-7.6172e-05
-7.3242e-05
-7.0312e-05
-6.7383e-05
-6.7383e-05
-6.7383e-05
-6.7383e-05
-6.4453e-05
-6.4453e-05
-6.1523e-05
-6.4453e-05
-6.1523e-05
-5.8594e-05
-6.1523e-05
-6.1523e-05
-6.1523e-05
-5.8594e-05
-5.5664e-05
-4.9805e-05
-4.6875e-05
-4.1016e-05
-3.8086e-05
-3.8086e-05
-4.1016e-05
-4.1016e-05
-4.3945e-05
-4.6875e-05
-4.9805e-05
-4.9805e-05
-4.6875e-05
-4.6875e-05
-4.6875e-05
-4.3945e-05
-4.6875e-05
-4.3945e-05
-4.1016e-05
-3.8086e-05
-3.8086e-05
-3.5156e-05
-3.2227e-05
-2.9297e-05
-2.9297e-05
-2.9297e-05
-2.9297e-05
-2.6367e-05
-2.6367e-05
-2.6367e-05
-2.6367e-05
-2.6367e-05
-2.9297e-05
-3.2227e-05
-2.9297e-05
-2.9297e-05
-2.3437e-05
-2.0508e-05
-2.0508e-05
-1.7578e-05
-1.7578e-05
-2.0508e-05
-1.7578e-05
-1.4648e-05
-1.1719e-05
-1.1719e-05
-1.1719e-05
-1.1719e-05
-5.8594e-06
-2.9297e-06
-2.9297e-06
0
2.9297e-06
0
2.9297e-06
2.9297e-06
2.9297e-06
2.9297e-06
5.8594e-06
5.8594e-06
8.7891e-06
8.7891e-06
8.7891e-06
8.7891e-06
8.7891e-06
8.7891e-06
8.7891e-06
8.7891e-06
8.7891e-06
8.7891e-06
5.8594e-06
8.7891e-06
8.7891e-06
5.8594e-06
5.8594e-06
2.9297e-06
2.9297e-06
0
0
0
-2.9297e-06
-2.9297e-06
-5.8594e-06
-2.9297e-06
-2.9297e-06
-2.9297e-06
-2.9297e-06
-2.9297e-06
-2.9297e-06
0
-2.9297e-06
-2.9297e-06
-2.9297e-06
-5.8594e-06
-8.7891e-06
-1.4648e-05
-2.0508e-05
-2.0508e-05
-2.0508e-05
-1.7578e-05
-1.4648e-05
-2.0508e-05
-2.3437e-05
-2.6367e-05
-2.6367e-05
-2.6367e-05
-2.6367e-05
-2.9297e-05
-3.2227e-05
-3.2227e-05
-2.9297e-05
-2.3437e-05
-2.0508e-05
-1.7578e-05
-1.4648e-05
-1.4648e-05
-1.4648e-05
-1.4648e-05
-1.4648e-05
-1.4648e-05
-1.4648e-05
-1.7578e-05
-1.4648e-05
-1.4648e-05
-1.1719e-05
-1.1719e-05
-1.1719e-05
-1.1719e-05
-1.1719e-05
-1.4648e-05
-1.4648e-05
-1.7578e-05
-1.7578e-05
-2.0508e-05
-2.0508e-05
-2.0508e-05
-1.7578e-05
-1.7578e-05
-2.0508e-05
-1.4648e-05
-1.1719e-05
-1.1719e-05
-1.1719e-05
-1.1719e-05
-5.8594e-06
-5.8594e-06
-1.1719e-05
-1.1719e-05
-1.1719e-05
-1.4648e-05
-1.7578e-05
-1.7578e-05
-1.7578e-05
-1.7578e-05
-1.7578e-05
-2.0508e-05
-2.0508e-05
-1.7578e-05
-1.7578e-05
-1.4648e-05
-1.1719e-05
-1.1719e-05
-1.4648e-05
-1.7578e-05
-1.7578e-05
-2.0508e-05
-2.0508e-05
-2.0508e-05
-2.0508e-05
-2.0508e-05
-2.3437e-05
-2.0508e-05
-1.7578e-05
-1.7578e-05
-1.7578e-05
-1.7578e-05
-2.0508e-05
-2.3437e-05
-2.6367e-05
-2.6367e-05
-2.6367e-05
-2.6367e-05
-2.9297e-05
-3.2227e-05
-2.9297e-05
-2.9297e-05
-2.6367e-05
-2.3437e-05
-2.3437e-05
-2.3437e-05
-2.0508e-05
-2.3437e-05
-2.3437e-05
-1.7578e-05
-1.4648e-05
-1.4648e-05
-1.1719e-05
-1.1719e-05
-1.4648e-05
-1.7578e-05
-1.7578e-05
-2.0508e-05
-2.3437e-05
-2.3437e-05
-2.0508e-05
-1.4648e-05
-1.4648e-05
-1.1719e-05
-1.1719e-05
-8.7891e-06
-8.7891e-06
-5.8594e-06
-5.8594e-06
-8.7891e-06
-1.1719e-05
-1.1719e-05
-1.4648e-05
-1.4648e-05
-1.4648e-05
-1.4648e-05
-1.1719e-05
-1.1719e-05
-1.1719e-05
-1.1719e-05
-1.1719e-05
-1.1719e-05
-1.1719e-05
-8.7891e-06
-8.7891e-06
-8.7891e-06
-8.7891e-06
-1.1719e-05
-1.1719e-05
-1.4648e-05
-1.1719e-05
-1.1719e-05
-1.1719e-05
-1.1719e-05
-1.1719e-05
-8.7891e-06
-8.7891e-06
-2.9297e-06
-2.9297e-06
-2.9297e-06
0
0
2.9297e-06
2.9297e-06
5.8594e-06
2.9297e-06
2.9297e-06
0
0
0
-2.9297e-06
-5.8594e-06
-5.8594e-06
-5.8594e-06
-2.9297e-06
-2.9297e-06
-2.9297e-06
-2.9297e-06
-5.8594e-06
-5.8594e-06
-5.8594e-06
-5.8594e-06
-5.8594e-06
-5.8594e-06
-2.9297e-06
0
-2.9297e-06
-2.9297e-06
-2.9297e-06
-5.8594e-06
-8.7891e-06
-1.1719e-05
-1.1719e-05
-1.1719e-05
-8.7891e-06
-8.7891e-06
-5.8594e-06
-5.8594e-06
-8.7891e-06
-5.8594e-06
-5.8594e-06
-8.7891e-06
-8.7891e-06
-8.7891e-06
-8.7891e-06
-2.9297e-06
-2.9297e-06
0
0
0
2.9297e-06
0
0
0
0
2.9297e-06
2.9297e-06
0
0
2.9297e-06
2.9297e-06
2.9297e-06
2.9297e-06
2.9297e-06
2.9297e-06
2.9297e-06
2.9297e-06
0
0
2.9297e-06
2.9297e-06
2.9297e-06
5.8594e-06
8.7891e-06
1.1719e-05
1.4648e-05
1.7578e-05
1.7578e-05
2.0508e-05
1.7578e-05
2.0508e-05
2.0508e-05
1.7578e-05
1.4648e-05
8.7891e-06
2.9297e-06
0
-2.9297e-06
-2.9297e-06
-2.9297e-06
0
0
0
0
0
5.8594e-06
5.8594e-06
8.7891e-06
5.8594e-06
5.8594e-06
8.7891e-06
5.8594e-06
5.8594e-06
5.8594e-06
2.9297e-06
5.8594e-06
5.8594e-06
2.9297e-06
2.9297e-06
2.9297e-06
8.7891e-06
1.1719e-05
1.4648e-05
1.7578e-05
2.0508e-05
2.0508e-05
2.6367e-05
3.2227e-05
3.2227e-05
3.2227e-05
3.2227e-05
2.9297e-05
2.9297e-05
3.2227e-05
2.9297e-05
2.9297e-05
2.9297e-05
3.2227e-05
3.2227e-05
3.2227e-05
2.9297e-05
2.6367e-05
2.6367e-05
2.6367e-05
2.3437e-05
2.0508e-05
1.4648e-05
1.1719e-05
8.7891e-06
5.8594e-06
5.8594e-06
5.8594e-06
2.9297e-06
2.9297e-06
0
-2.9297e-06
-5.8594e-06
-5.8594e-06
-5.8594e-06
-8.7891e-06
-1.1719e-05
-1.1719e-05
-1.4648e-05
-1.7578e-05
-2.3437e-05
-2.6367e-05
-2.9297e-05
-2.6367e-05
-2.6367e-05
-2.6367e-05
-2.9297e-05
-2.9297e-05
-3.2227e-05
-3.5156e-05
-3.8086e-05
-3.8086e-05
-4.1016e-05
-4.1016e-05
-4.1016e-05
-3.8086e-05
-3.5156e-05
-3.5156e-05
-3.5156e-05
-3.2227e-05
-2.9297e-05
-2.6367e-05
-2.3437e-05
-2.6367e-05
-2.6367e-05
-2.6367e-05
-2.3437e-05
-2.0508e-05
-1.7578e-05
-1.7578e-05
-2.0508e-05
-2.0508e-05
-2.0508e-05
-1.7578e-05
-1.4648e-05
-1.1719e-05
-1.1719e-05
-1.4648e-05
-1.4648e-05
-1.4648e-05
-1.1719e-05
-1.1719e-05
-1.1719e-05
-8.7891e-06
-8.7891e-06
-8.7891e-06
-2.9297e-06
-2.9297e-06
-2.9297e-06
0
0
0
0
0
0
0
0
0
0
2.9297e-06
2.9297e-06
5.8594e-06
8.7891e-06
1.4648e-05
2.0508e-05
2.6367e-05
3.8086e-05
4.9805e-05
6.4453e-05
7.6172e-05
8.7891e-05
0.00010254
0.00011719
0.00013477
0.00014941
0.00016406
0.00017871
0.0001875
0.00019922
0.00020508
0.00021094
0.00022266
0.00022852
0.00023437
0.0002373
0.00023437
0.00023145
0.00022266
0.00020801
0.0001875
0.00016406
0.00013477
9.668e-05
6.1523e-05
2.0508e-05
-2.3437e-05
-6.7383e-05
-0.00011133
-0.00015234
-0.00019043
-0.00023145
-0.00026953
-0.00030176
-0.00033398
-0.00036035
-0.00037793
-0.00038672
-0.00038965
-0.00038672
-0.000375
-0.00035742
-0.00033984
-0.00031934
-0.00030176
-0.00028418
-0.00026953
-0.00025195
-0.0002373
-0.00022559
-0.00021387
-0.00020508
-0.00019629
-0.0001875
-0.00017578
-0.00016113
-0.00014355
-0.00012598
-0.00011719
-0.0001084
-9.9609e-05
-9.082e-05
-8.2031e-05
-7.6172e-05
-6.7383e-05
-5.8594e-05
-4.9805e-05
-4.3945e-05
-3.8086e-05
-3.2227e-05
-2.3437e-05
-1.7578e-05
-1.1719e-05
-8.7891e-06
-5.8594e-06
-2.9297e-06
0
2.9297e-06
5.8594e-06
8.7891e-06
8.7891e-06
8.7891e-06
1.4648e-05
1.7578e-05
2.0508e-05
1.7578e-05
1.7578e-05
2.0508e-05
2.0508e-05
2.3437e-05
2.9297e-05
3.2227e-05
3.2227e-05
2.9297e-05
2.6367e-05
2.6367e-05
2.3437e-05
2.3437e-05
2.3437e-05
2.6367e-05
2.6367e-05
2.6367e-05
2.9297e-05
2.9297e-05
3.5156e-05
3.8086e-05
4.1016e-05
4.3945e-05
4.3945e-05
4.3945e-05
4.6875e-05
4.9805e-05
5.2734e-05
5.2734e-05
5.5664e-05
5.8594e-05
6.1523e-05
6.7383e-05
7.0312e-05
7.3242e-05
7.6172e-05
8.2031e-05
8.4961e-05
9.082e-05
9.082e-05
8.4961e-05
8.2031e-05
8.2031e-05
8.2031e-05
8.2031e-05
8.2031e-05
8.2031e-05
8.2031e-05
8.2031e-05
8.7891e-05
8.7891e-05
9.082e-05
9.082e-05
9.082e-05
9.082e-05
9.082e-05
9.375e-05
9.668e-05
9.375e-05
9.375e-05
9.082e-05
9.082e-05
9.082e-05
9.375e-05
9.375e-05
9.082e-05
9.082e-05
9.375e-05
9.082e-05
9.082e-05
9.082e-05
9.375e-05
9.668e-05
9.668e-05
9.375e-05
9.082e-05
8.7891e-05
8.7891e-05
8.7891e-05
8.7891e-05
8.7891e-05
8.7891e-05
9.082e-05
8.7891e-05
8.4961e-05
8.4961e-05
8.2031e-05
8.2031e-05
8.2031e-05
8.2031e-05
8.7891e-05
9.082e-05
9.375e-05
9.668e-05
0.00010254
0.00010254
0.00010254
0.00010254
9.9609e-05
9.668e-05
9.668e-05
9.668e-05
9.668e-05
9.375e-05
9.375e-05
9.668e-05
9.375e-05
9.375e-05
9.668e-05
9.375e-05
9.668e-05
9.9609e-05
0.00010254
0.00010254
0.00010547
0.00010254
0.00010254
0.00010547
0.00010254
0.00010254
0.00010254
0.00010254
0.00010254
0.00010254
0.00010254
0.00010254
0.00010254
0.00010254
0.00010547
0.00010547
0.00010547
0.00010254
9.9609e-05
9.668e-05
9.082e-05
8.4961e-05
7.9102e-05
8.2031e-05
8.2031e-05
7.9102e-05
7.9102e-05
7.3242e-05
7.0312e-05
7.0312e-05
6.7383e-05
6.7383e-05
6.7383e-05
7.0312e-05
7.0312e-05
6.7383e-05
6.7383e-05
6.4453e-05
6.4453e-05
6.1523e-05
5.5664e-05
4.9805e-05
4.3945e-05
3.8086e-05
3.5156e-05
3.2227e-05
2.6367e-05
2.0508e-05
2.0508e-05
1.7578e-05
1.4648e-05
1.1719e-05
8.7891e-06
2.9297e-06
-5.8594e-06
-1.4648e-05
-2.0508e-05
-2.9297e-05
-3.5156e-05
-3.8086e-05
-4.1016e-05
-4.6875e-05
-4.9805e-05
-5.2734e-05
-5.8594e-05
-6.4453e-05
-6.7383e-05
-7.0312e-05
-7.3242e-05
-7.9102e-05
-8.2031e-05
-8.2031e-05
-8.4961e-05
-8.4961e-05
-9.082e-05
-9.375e-05
-9.668e-05
-9.9609e-05
-0.00010254
-0.00010254
-0.00010254
-0.00010254
-0.00010547
-0.0001084
-0.0001084
-0.00011426
-0.00011426
-0.00012012
-0.00012012
-0.00012305
-0.00012305
-0.00012305
-0.00012305
-0.00012305
-0.00012305
-0.00012012
-0.00011719
-0.00011719
-0.00011426
-0.00011133
-0.0001084
-0.00010547
-0.00010547
-0.00010254
-0.00010254
-0.00010254
-0.00010254
-0.00010254
-0.00010547
-0.0001084
-0.00011133
-0.00011426
-0.00011426
-0.00011426
-0.00011133
-0.0001084
-0.00010547
-0.00010547
-0.00010547
-0.00010547
-0.00010547
-0.00010254
-9.9609e-05
-9.375e-05
-9.082e-05
-8.7891e-05
-8.4961e-05
-8.4961e-05
-8.2031e-05
-8.2031e-05
-7.9102e-05
-7.9102e-05
-8.2031e-05
-8.2031e-05
-8.4961e-05
-8.4961e-05
-8.4961e-05
-8.4961e-05
-8.2031e-05
-7.9102e-05
-7.6172e-05
-7.3242e-05
-7.3242e-05
-7.9102e-05
-7.9102e-05
-7.6172e-05
-8.2031e-05
-8.7891e-05
-9.082e-05
-9.082e-05
-9.375e-05
-9.375e-05
-9.082e-05
-8.7891e-05
-8.4961e-05
-8.4961e-05
-8.2031e-05
-7.9102e-05
-7.6172e-05
-7.6172e-05
-7.3242e-05
-7.3242e-05
-7.6172e-05
-7.6172e-05
-7.6172e-05
-7.9102e-05
-8.2031e-05
-8.2031e-05
-8.2031e-05
-8.4961e-05
-9.082e-05
-9.082e-05
-9.082e-05
-9.082e-05
-9.082e-05
-9.375e-05
-9.668e-05
-9.668e-05
-9.668e-05
-9.9609e-05
-9.9609e-05
-9.668e-05
-9.668e-05
-9.375e-05
-9.375e-05
-9.082e-05
-9.082e-05
-9.082e-05
-8.4961e-05
-8.4961e-05
-7.9102e-05
-7.6172e-05
-7.3242e-05
-7.0312e-05
-6.7383e-05
-6.7383e-05
-6.7383e-05
-6.7383e-05
-6.7383e-05
-6.7383e-05
-6.4453e-05
-6.1523e-05
-5.8594e-05
-5.5664e-05
-5.5664e-05
-5.5664e-05
-5.2734e-05
-5.2734e-05
-5.2734e-05
-5.2734e-05
-5.2734e-05
-5.2734e-05
-5.2734e-05
-4.9805e-05
-4.6875e-05
-4.6875e-05
-4.6875e-05
-4.6875e-05
-4.3945e-05
-4.1016e-05
-3.8086e-05
-3.5156e-05
-2.9297e-05
-2.6367e-05
-2.3437e-05
-2.6367e-05
-2.3437e-05
-2.6367e-05
-2.9297e-05
-2.9297e-05
-2.6367e-05
-2.3437e-05
-2.3437e-05
-2.3437e-05
-2.3437e-05
-2.0508e-05
-1.4648e-05
-1.1719e-05
-5.8594e-06
-5.8594e-06
0
0
0
0
2.9297e-06
2.9297e-06
5.8594e-06
2.9297e-06
2.9297e-06
2.9297e-06
2.9297e-06
2.9297e-06
2.9297e-06
2.9297e-06
2.9297e-06
5.8594e-06
8.7891e-06
5.8594e-06
5.8594e-06
8.7891e-06
5.8594e-06
5.8594e-06
5.8594e-06
8.7891e-06
8.7891e-06
1.1719e-05
1.4648e-05
1.1719e-05
1.4648e-05
1.4648e-05
1.1719e-05
1.1719e-05
1.1719e-05
1.7578e-05
2.3437e-05
2.6367e-05
3.2227e-05
2.6367e-05
2.6367e-05
2.3437e-05
2.0508e-05
2.0508e-05
1.7578e-05
1.7578e-05
1.1719e-05
1.1719e-05
8.7891e-06
8.7891e-06
1.1719e-05
1.1719e-05
8.7891e-06
8.7891e-06
5.8594e-06
8.7891e-06
2.9297e-06
2.9297e-06
5.8594e-06
8.7891e-06
8.7891e-06
8.7891e-06
8.7891e-06
8.7891e-06
5.8594e-06
8.7891e-06
8.7891e-06
8.7891e-06
8.7891e-06
5.8594e-06
2.9297e-06
0
2.9297e-06
2.9297e-06
0
-2.9297e-06
-2.9297e-06
-2.9297e-06
-2.9297e-06
-8.7891e-06
-5.8594e-06
-5.8594e-06
-5.8594e-06
-5.8594e-06
-5.8594e-06
-5.8594e-06
-2.9297e-06
-2.9297e-06
-2.9297e-06
-2.9297e-06
-2.9297e-06
-8.7891e-06
-1.1719e-05
-1.1719e-05
-1.7578e-05
-2.0508e-05
-2.3437e-05
-2.3437e-05
-2.6367e-05
-2.6367e-05
-2.3437e-05
-2.6367e-05
-2.9297e-05
-2.9297e-05
-2.9297e-05
-2.9297e-05
-2.9297e-05
-3.2227e-05
-3.5156e-05
-3.8086e-05
-4.1016e-05
-4.3945e-05
-4.6875e-05
-4.6875e-05
-4.6875e-05
-4.6875e-05
-4.3945e-05
-4.1016e-05
-4.3945e-05
-4.3945e-05
-4.1016e-05
-4.3945e-05
-4.3945e-05
-4.9805e-05
-5.2734e-05
-4.9805e-05
-4.9805e-05
-4.6875e-05
-4.6875e-05
-4.9805e-05
-4.9805e-05
-5.2734e-05
-5.2734e-05
-5.2734e-05
-5.2734e-05
-5.2734e-05
-5.2734e-05
-4.9805e-05
-4.9805e-05
-4.9805e-05
-4.6875e-05
-4.6875e-05
-4.6875e-05
-4.6875e-05
-4.3945e-05
-3.8086e-05
-3.8086e-05
-3.8086e-05
-3.8086e-05
-3.5156e-05
-2.9297e-05
-2.9297e-05
-2.6367e-05
-2.6367e-05
-2.3437e-05
-2.0508e-05
-2.3437e-05
-2.6367e-05
-2.6367e-05
-2.6367e-05
-2.0508e-05
-1.7578e-05
-1.7578e-05
-1.4648e-05
-1.1719e-05
-1.1719e-05
-1.1719e-05
-1.1719e-05
-1.1719e-05
-8.7891e-06
-5.8594e-06
-2.9297e-06
-2.9297e-06
-5.8594e-06
-5.8594e-06
-2.9297e-06
0
-2.9297e-06
-2.9297e-06
-2.9297e-06
2.9297e-06
2.9297e-06
2.9297e-06
8.7891e-06
8.7891e-06
1.1719e-05
8.7891e-06
1.1719e-05
1.1719e-05
1.4648e-05
1.7578e-05
1.4648e-05
8.7891e-06
5.8594e-06
5.8594e-06
5.8594e-06
2.9297e-06
5.8594e-06
5.8594e-06
5.8594e-06
8.7891e-06
1.1719e-05
1.1719e-05
1.1719e-05
1.1719e-05
5.8594e-06
2.9297e-06
2.9297e-06
2.9297e-06
0
-2.9297e-06
-5.8594e-06
-1.1719e-05
-1.4648e-05
-1.4648e-05
-1.4648e-05
-1.4648e-05
-1.4648e-05
-1.4648e-05
-1.1719e-05
-8.7891e-06
-5.8594e-06
-5.8594e-06
-5.8594e-06
-8.7891e-06
-8.7891e-06
-1.1719e-05
-1.1719e-05
-1.4648e-05
-1.4648e-05
-1.7578e-05
-2.0508e-05
-2.3437e-05
-2.0508e-05
-2.3437e-05
-2.3437e-05
-2.3437e-05
-2.6367e-05
-2.9297e-05
-3.2227e-05
-3.2227e-05
-3.5156e-05
-3.5156e-05
-3.2227e-05
-3.2227e-05
-3.2227e-05
-3.2227e-05
-3.2227e-05
-2.9297e-05
-2.9297e-05
-2.9297e-05
-3.2227e-05
-3.2227e-05
-3.2227e-05
-3.2227e-05
-2.6367e-05
-2.3437e-05
-2.6367e-05
-2.9297e-05
-2.9297e-05
-3.2227e-05
-3.2227e-05
-2.9297e-05
-2.9297e-05
-2.9297e-05
-2.6367e-05
-2.3437e-05
-2.3437e-05
-2.0508e-05
-2.0508e-05
-1.4648e-05
-1.7578e-05
-1.7578e-05
-2.0508e-05
-2.0508e-05
-2.3437e-05
-2.3437e-05
-2.3437e-05
-2.3437e-05
-2.0508e-05
-1.7578e-05
-1.4648e-05
-1.1719e-05
-8.7891e-06
-8.7891e-06
-5.8594e-06
-5.8594e-06
-2.9297e-06
0
2.9297e-06
8.7891e-06
5.8594e-06
5.8594e-06
8.7891e-06
1.1719e-05
1.4648e-05
1.1719e-05
8.7891e-06
1.1719e-05
1.1719e-05
1.7578e-05
1.7578e-05
2.0508e-05
2.6367e-05
2.9297e-05
3.8086e-05
4.3945e-05
4.3945e-05
4.6875e-05
4.9805e-05
5.2734e-05
5.5664e-05
5.5664e-05
5.5664e-05
5.5664e-05
5.5664e-05
5.5664e-05
5.5664e-05
5.5664e-05
5.2734e-05
5.2734e-05
4.9805e-05
4.6875e-05
4.3945e-05
3.8086e-05
3.5156e-05
3.2227e-05
2.6367e-05
2.6367e-05
2.6367e-05
2.6367e-05
2.0508e-05
2.3437e-05
2.0508e-05
2.0508e-05
2.0508e-05
1.7578e-05
1.4648e-05
1.1719e-05
8.7891e-06
2.9297e-06
-5.8594e-06
-1.1719e-05
-2.0508e-05
-2.3437e-05
-2.3437e-05
-2.6367e-05
-2.9297e-05
-2.9297e-05
-2.9297e-05
-2.9297e-05
-2.9297e-05
-3.2227e-05
-3.5156e-05
-3.8086e-05
-3.8086e-05
-4.3945e-05
-4.6875e-05
-4.3945e-05
-4.3945e-05
-4.3945e-05
-4.3945e-05
-4.3945e-05
-4.3945e-05
-4.1016e-05
-4.3945e-05
-4.3945e-05
-4.1016e-05
-4.1016e-05
-4.1016e-05
-3.5156e-05
-3.2227e-05
-2.9297e-05
-3.2227e-05
-3.5156e-05
-3.2227e-05
-3.5156e-05
-2.9297e-05
-2.6367e-05
-2.6367e-05
-2.3437e-05
-2.0508e-05
-1.7578e-05
-1.1719e-05
-1.1719e-05
-1.1719e-05
-1.1719e-05
-8.7891e-06
0
0
2.9297e-06
2.9297e-06
2.9297e-06
2.9297e-06
2.9297e-06
2.9297e-06
8.7891e-06
8.7891e-06
1.1719e-05
1.4648e-05
1.7578e-05
2.0508e-05
2.3437e-05
2.6367e-05
2.9297e-05
3.5156e-05
4.1016e-05
5.2734e-05
6.1523e-05
7.0312e-05
8.4961e-05
9.9609e-05
0.00011426
0.00012598
0.00013477
0.00014355
0.00015527
0.00016699
0.00018164
0.00019629
0.00020801
0.0002168
0.00022559
0.00023145
0.00023437
0.00024316
0.00024609
0.00024609
0.00024316
0.00023145
0.00022559
0.00021094
0.00019336
0.00017285
0.00014355
0.0001084
7.3242e-05
3.8086e-05
0
-4.1016e-05
-8.4961e-05
-0.00012598
-0.00016406
-0.00019922
-0.0002373
-0.00027246
-0.00029883
-0.00032812
-0.00034863
-0.00036035
-0.00036621
-0.00036328
-0.00035449
-0.00034277
-0.00032812
-0.00031348
-0.00030469
-0.00028711
-0.00027246
-0.00025781
-0.00024023
-0.00022559
-0.00021094
-0.00019922
-0.0001875
-0.00017578
-0.00016699
-0.00015234
-0.0001377
-0.00012598
-0.00011426
-0.00010547
-9.668e-05
-9.082e-05
-8.4961e-05
-7.9102e-05
-7.6172e-05
-7.0312e-05
-6.7383e-05
-6.1523e-05
-5.2734e-05
-4.6875e-05
-4.1016e-05
-3.2227e-05
-2.3437e-05
-1.7578e-05
-8.7891e-06
0
5.8594e-06
8.7891e-06
1.4648e-05
1.7578e-05
2.0508e-05
1.7578e-05
1.1719e-05
5.8594e-06
-2.9297e-06
-5.8594e-06
-2.9297e-06
0
5.8594e-06
8.7891e-06
8.7891e-06
1.1719e-05
1.4648e-05
1.7578e-05
1.7578e-05
1.7578e-05
2.0508e-05
2.0508e-05
2.0508e-05
1.7578e-05
2.0508e-05
2.0508e-05
2.0508e-05
2.3437e-05
2.6367e-05
2.9297e-05
3.2227e-05
3.5156e-05
3.5156e-05
3.5156e-05
4.1016e-05
4.1016e-05
4.3945e-05
4.6875e-05
4.9805e-05
5.2734e-05
5.5664e-05
5.5664e-05
6.4453e-05
6.7383e-05
7.0312e-05
7.0312e-05
7.3242e-05
7.6172e-05
7.9102e-05
8.4961e-05
8.7891e-05
8.7891e-05
9.082e-05
9.082e-05
9.082e-05
9.082e-05
9.082e-05
9.082e-05
9.375e-05
9.668e-05
9.9609e-05
0.00010254
0.00010254
0.00010254
0.00010254
9.9609e-05
9.375e-05
9.082e-05
8.7891e-05
8.4961e-05
8.7891e-05
8.7891e-05
8.7891e-05
8.2031e-05
8.2031e-05
8.2031e-05
8.2031e-05
8.2031e-05
7.9102e-05
7.6172e-05
7.6172e-05
7.6172e-05
7.3242e-05
7.3242e-05
7.0312e-05
6.7383e-05
6.7383e-05
7.0312e-05
7.3242e-05
7.9102e-05
8.2031e-05
8.2031e-05
8.7891e-05
8.7891e-05
8.4961e-05
8.2031e-05
7.9102e-05
7.6172e-05
7.6172e-05
7.9102e-05
8.2031e-05
8.2031e-05
8.4961e-05
8.7891e-05
8.4961e-05
8.2031e-05
8.2031e-05
8.4961e-05
8.7891e-05
8.4961e-05
8.2031e-05
7.9102e-05
7.9102e-05
8.2031e-05
8.2031e-05
8.4961e-05
8.4961e-05
8.4961e-05
8.7891e-05
8.7891e-05
8.7891e-05
8.7891e-05
9.082e-05
9.082e-05
9.082e-05
9.668e-05
9.9609e-05
0.00010547
0.00010547
0.00010547
0.0001084
0.00010547
0.0001084
0.00010547
0.00010547
0.00010254
0.00010254
9.9609e-05
9.668e-05
9.668e-05
9.668e-05
9.082e-05
9.375e-05
9.082e-05
8.7891e-05
8.7891e-05
8.7891e-05
9.082e-05
8.7891e-05
8.7891e-05
8.7891e-05
8.4961e-05
8.2031e-05
8.2031e-05
7.9102e-05
7.9102e-05
7.9102e-05
7.9102e-05
7.9102e-05
7.9102e-05
7.6172e-05
7.0312e-05
7.0312e-05
6.7383e-05
6.7383e-05
6.4453e-05
5.8594e-05
4.9805e-05
4.1016e-05
3.5156e-05
2.3437e-05
1.7578e-05
8.7891e-06
-2.9297e-06
-8.7891e-06
-1.4648e-05
-2.3437e-05
-2.3437e-05
-3.2227e-05
-3.8086e-05
-4.3945e-05
-4.9805e-05
-5.2734e-05
-5.8594e-05
-5.8594e-05
-6.4453e-05
-7.3242e-05
-7.6172e-05
-8.2031e-05
-8.7891e-05
-9.375e-05
-9.668e-05
-9.9609e-05
-0.00010254
-0.00010547
-0.0001084
-0.00011426
-0.00011719
-0.00012012
-0.00012598
-0.00012891
-0.00013184
-0.00012891
-0.00013184
-0.00013477
-0.0001377
-0.00014062
-0.00014355
-0.00014941
-0.00015234
-0.00014648
-0.00014648
-0.00014355
-0.00014648
-0.00014648
-0.00014355
-0.00014355
-0.0001377
-0.0001377
-0.0001377
-0.00014062
-0.00014062
-0.00013477
-0.00013184
-0.00013184
-0.00012891
-0.00012891
-0.00012598
-0.00012305
-0.00012012
-0.00011719
-0.00011426
-0.0001084
-0.00010547
-0.00010254
-9.9609e-05
-9.668e-05
-9.375e-05
-9.668e-05
-9.668e-05
-9.375e-05
-9.082e-05
-9.082e-05
-9.082e-05
-8.4961e-05
-8.4961e-05
-8.2031e-05
-8.2031e-05
-8.2031e-05
-7.9102e-05
-7.6172e-05
-7.6172e-05
-7.6172e-05
-7.6172e-05
-7.9102e-05
-8.2031e-05
-8.2031e-05
-8.2031e-05
-8.2031e-05
-8.2031e-05
-7.6172e-05
-7.6172e-05
-7.9102e-05
-7.6172e-05
-7.6172e-05
-7.6172e-05
-7.6172e-05
-7.6172e-05
-8.2031e-05
-8.2031e-05
-8.2031e-05
-8.2031e-05
-8.2031e-05
-7.9102e-05
-7.9102e-05
-8.2031e-05
-7.9102e-05
-7.6172e-05
-7.9102e-05
-8.4961e-05
-9.082e-05
-9.668e-05
-9.9609e-05
-0.00010547
-0.00011133
-0.00011719
-0.00011719
-0.00011719
-0.00012012
-0.00012012
-0.00012012
-0.00012012
-0.00012305
-0.00012598
-0.00012891
-0.00013184
-0.00013184
-0.00013184
-0.00013184
-0.00013477
-0.00013477
-0.00013477
-0.00013184
-0.00013184
-0.00012598
-0.00012305
-0.00012305
-0.00012012
-0.00012012
-0.00011426
-0.00011133
-0.0001084
-0.00010547
-0.00010547
-9.9609e-05
-9.668e-05
-9.375e-05
-9.082e-05
-8.7891e-05
-8.7891e-05
-8.7891e-05
-8.4961e-05
-8.2031e-05
-8.2031e-05
-7.9102e-05
-7.9102e-05
-7.3242e-05
-6.7383e-05
-5.8594e-05
-5.5664e-05
-5.2734e-05
-4.9805e-05
-4.6875e-05
-4.6875e-05
-4.3945e-05
-3.8086e-05
-3.5156e-05
-3.5156e-05
-3.2227e-05
-2.9297e-05
-2.3437e-05
-2.0508e-05
-1.7578e-05
-1.4648e-05
-1.1719e-05
-8.7891e-06
-8.7891e-06
-2.9297e-06
-5.8594e-06
-5.8594e-06
-5.8594e-06
-5.8594e-06
-5.8594e-06
-1.1719e-05
-1.1719e-05
-1.1719e-05
-1.1719e-05
-1.4648e-05
-1.4648e-05
-1.4648e-05
-1.4648e-05
-1.4648e-05
-1.4648e-05
-1.4648e-05
-1.4648e-05
-1.1719e-05
-1.1719e-05
-1.1719e-05
-1.1719e-05
-1.1719e-05
-1.4648e-05
-1.4648e-05
-1.4648e-05
-1.7578e-05
-1.7578e-05
-1.7578e-05
-1.4648e-05
-1.1719e-05
-8.7891e-06
-5.8594e-06
-2.9297e-06
-2.9297e-06
-2.9297e-06
-2.9297e-06
-2.9297e-06
-5.8594e-06
-1.1719e-05
-1.1719e-05
-1.1719e-05
-1.1719e-05
-8.7891e-06
-5.8594e-06
-5.8594e-06
-2.9297e-06
-5.8594e-06
-5.8594e-06
-2.9297e-06
-5.8594e-06
-5.8594e-06
-8.7891e-06
-8.7891e-06
-8.7891e-06
-8.7891e-06
-8.7891e-06
-5.8594e-06
-2.9297e-06
0
5.8594e-06
8.7891e-06
8.7891e-06
8.7891e-06
1.1719e-05
1.1719e-05
1.1719e-05
1.1719e-05
8.7891e-06
1.1719e-05
1.1719e-05
1.1719e-05
1.4648e-05
1.7578e-05
1.7578e-05
1.7578e-05
1.7578e-05
1.4648e-05
1.4648e-05
1.4648e-05
1.4648e-05
1.1719e-05
1.1719e-05
8.7891e-06
8.7891e-06
8.7891e-06
1.1719e-05
1.4648e-05
1.4648e-05
1.4648e-05
1.7578e-05
2.0508e-05
2.3437e-05
2.3437e-05
2.6367e-05
2.6367e-05
2.9297e-05
3.2227e-05
3.5156e-05
3.2227e-05
3.2227e-05
2.9297e-05
2.9297e-05
2.9297e-05
2.6367e-05
2.6367e-05
2.3437e-05
2.3437e-05
2.3437e-05
2.3437e-05
2.3437e-05
1.7578e-05
1.4648e-05
1.1719e-05
1.1719e-05
8.7891e-06
5.8594e-06
8.7891e-06
5.8594e-06
2.9297e-06
2.9297e-06
0
-2.9297e-06
-5.8594e-06
-8.7891e-06
-8.7891e-06
-1.1719e-05
-1.4648e-05
-1.7578e-05
-1.7578e-05
-2.0508e-05
-2.0508e-05
-2.3437e-05
-2.6367e-05
-2.9297e-05
-2.9297e-05
-3.5156e-05
-3.5156e-05
-3.8086e-05
-4.1016e-05
-4.1016e-05
-4.3945e-05
-4.3945e-05
-4.3945e-05
-4.1016e-05
-3.8086e-05
-4.1016e-05
-4.1016e-05
-4.1016e-05
-4.1016e-05
-3.8086e-05
-3.8086e-05
-3.8086e-05
-3.8086e-05
-3.5156e-05
-3.5156e-05
-3.5156e-05
-3.2227e-05
-3.2227e-05
-3.2227e-05
-3.5156e-05
-3.5156e-05
-3.2227e-05
-3.5156e-05
-3.2227e-05
-2.9297e-05
-2.6367e-05
-2.9297e-05
-2.9297e-05
-2.9297e-05
-2.6367e-05
-2.3437e-05
-2.3437e-05
-2.0508e-05
-1.7578e-05
-1.4648e-05
-1.1719e-05
-8.7891e-06
-5.8594e-06
-2.9297e-06
-5.8594e-06
-5.8594e-06
-5.8594e-06
-5.8594e-06
-2.9297e-06
-2.9297e-06
-2.9297e-06
-2.9297e-06
0
0
2.9297e-06
5.8594e-06
5.8594e-06
2.9297e-06
0
2.9297e-06
2.9297e-06
2.9297e-06
2.9297e-06
2.9297e-06
8.7891e-06
8.7891e-06
8.7891e-06
8.7891e-06
5.8594e-06
2.9297e-06
5.8594e-06
5.8594e-06
8.7891e-06
1.1719e-05
1.4648e-05
1.7578e-05
2.0508e-05
2.6367e-05
2.3437e-05
2.6367e-05
2.6367e-05
2.3437e-05
2.0508e-05
1.7578e-05
2.0508e-05
1.7578e-05
1.4648e-05
1.1719e-05
8.7891e-06
8.7891e-06
1.1719e-05
1.1719e-05
8.7891e-06
8.7891e-06
8.7891e-06
8.7891e-06
8.7891e-06
8.7891e-06
5.8594e-06
2.9297e-06
2.9297e-06
2.9297e-06
5.8594e-06
2.9297e-06
2.9297e-06
0
0
0
-2.9297e-06
-2.9297e-06
-2.9297e-06
-2.9297e-06
-2.9297e-06
-5.8594e-06
-5.8594e-06
-5.8594e-06
-8.7891e-06
-1.1719e-05
-1.1719e-05
-1.1719e-05
-1.7578e-05
-1.7578e-05
-1.7578e-05
-1.7578e-05
-1.7578e-05
-2.0508e-05
-2.0508e-05
-1.7578e-05
-1.4648e-05
-1.1719e-05
-1.1719e-05
-1.1719e-05
-5.8594e-06
0
5.8594e-06
5.8594e-06
8.7891e-06
8.7891e-06
1.1719e-05
1.7578e-05
1.7578e-05
1.7578e-05
1.7578e-05
1.1719e-05
1.4648e-05
1.4648e-05
1.7578e-05
2.0508e-05
2.0508e-05
2.0508e-05
2.0508e-05
1.7578e-05
1.4648e-05
1.4648e-05
1.1719e-05
1.4648e-05
1.1719e-05
1.1719e-05
1.1719e-05
1.4648e-05
1.1719e-05
1.4648e-05
1.4648e-05
1.4648e-05
1.4648e-05
1.1719e-05
8.7891e-06
5.8594e-06
-2.9297e-06
-5.8594e-06
-1.7578e-05
-2.3437e-05
-2.6367e-05
-3.2227e-05
-3.5156e-05
-3.8086e-05
-3.8086e-05
-4.3945e-05
-4.6875e-05
-4.1016e-05
-3.8086e-05
-3.8086e-05
-3.8086e-05
-3.8086e-05
-3.5156e-05
-3.5156e-05
-3.2227e-05
-3.2227e-05
-2.9297e-05
-2.3437e-05
-2.0508e-05
-1.7578e-05
-1.1719e-05
-1.1719e-05
-5.8594e-06
-8.7891e-06
-8.7891e-06
-8.7891e-06
-1.1719e-05
-1.1719e-05
-1.1719e-05
-1.1719e-05
-1.7578e-05
-2.3437e-05
-2.0508e-05
-2.0508e-05
-1.7578e-05
-1.7578e-05
-2.0508e-05
-2.0508e-05
-2.3437e-05
-2.3437e-05
-2.3437e-05
-2.3437e-05
-2.3437e-05
-2.6367e-05
-2.6367e-05
-2.6367e-05
-2.9297e-05
-2.9297e-05
-2.9297e-05
-2.9297e-05
-2.9297e-05
-3.2227e-05
-2.9297e-05
-2.9297e-05
-2.3437e-05
-2.3437e-05
-2.0508e-05
-1.1719e-05
-1.1719e-05
-8.7891e-06
-5.8594e-06
-5.8594e-06
-2.9297e-06
0
8.7891e-06
1.4648e-05
2.3437e-05
3.8086e-05
4.9805e-05
6.1523e-05
7.6172e-05
9.082e-05
0.00010547
0.00012012
0.00014062
0.00015234
0.00016113
0.00017285
0.00018457
0.00019336
0.00019922
0.00020508
0.00020801
0.00020801
0.00020215
0.00019629
0.00019043
0.00017871
0.00016406
0.00014062
0.00011426
8.4961e-05
4.9805e-05
8.7891e-06
-2.9297e-05
-7.0312e-05
-0.00011133
-0.00014941
-0.0001875
-0.00022559
-0.00026367
-0.00030469
-0.00033398
-0.00036035
-0.000375
-0.00038086
-0.00038086
-0.000375
-0.00036328
-0.00034863
-0.00033105
-0.00031348
-0.0002959
-0.00028125
-0.00026367
-0.00024609
-0.00023437
-0.00021973
-0.00020508
-0.0001875
-0.00017285
-0.0001582
-0.00014062
-0.00012891
-0.00011133
-9.668e-05
-8.2031e-05
-7.0312e-05
-5.8594e-05
-4.9805e-05
-4.3945e-05
-3.8086e-05
-3.2227e-05
-2.3437e-05
-1.4648e-05
-8.7891e-06
-2.9297e-06
2.9297e-06
5.8594e-06
1.1719e-05
1.7578e-05
1.7578e-05
2.0508e-05
2.6367e-05
2.6367e-05
2.6367e-05
2.6367e-05
2.9297e-05
2.6367e-05
2.6367e-05
2.9297e-05
2.9297e-05
3.2227e-05
2.9297e-05
2.6367e-05
2.6367e-05
2.6367e-05
2.6367e-05
2.3437e-05
2.3437e-05
2.0508e-05
2.0508e-05
2.0508e-05
2.3437e-05
2.0508e-05
2.3437e-05
2.3437e-05
2.6367e-05
2.6367e-05
2.9297e-05
3.2227e-05
3.2227e-05
3.5156e-05
3.8086e-05
3.8086e-05
4.1016e-05
4.1016e-05
4.1016e-05
4.3945e-05
4.6875e-05
4.6875e-05
4.9805e-05
5.5664e-05
5.5664e-05
5.8594e-05
6.1523e-05
6.4453e-05
6.7383e-05
6.4453e-05
6.4453e-05
6.7383e-05
6.4453e-05
6.4453e-05
6.1523e-05
6.4453e-05
6.4453e-05
6.4453e-05
6.7383e-05
6.7383e-05
7.0312e-05
7.0312e-05
7.0312e-05
7.0312e-05
7.0312e-05
7.0312e-05
7.0312e-05
7.0312e-05
7.0312e-05
6.7383e-05
6.4453e-05
6.1523e-05
5.8594e-05
6.1523e-05
6.1523e-05
6.1523e-05
5.8594e-05
5.5664e-05
5.5664e-05
5.5664e-05
5.5664e-05
5.2734e-05
5.2734e-05
5.2734e-05
4.9805e-05
4.9805e-05
5.2734e-05
5.2734e-05
5.2734e-05
5.2734e-05
5.2734e-05
4.9805e-05
4.9805e-05
4.9805e-05
4.9805e-05
4.6875e-05
4.6875e-05
4.3945e-05
4.6875e-05
5.2734e-05
5.5664e-05
5.8594e-05
5.8594e-05
5.8594e-05
5.8594e-05
5.8594e-05
5.5664e-05
5.5664e-05
5.8594e-05
6.1523e-05
6.7383e-05
6.7383e-05
7.0312e-05
7.0312e-05
7.3242e-05
7.6172e-05
7.6172e-05
7.6172e-05
7.6172e-05
7.9102e-05
8.2031e-05
8.2031e-05
8.4961e-05
8.7891e-05
8.7891e-05
8.7891e-05
8.7891e-05
9.082e-05
9.082e-05
9.375e-05
9.668e-05
0.00010254
0.00010254
0.0001084
0.00011133
0.00011719
0.00012305
0.00012598
0.00012891
0.00012891
0.00013184
0.00012891
0.00012598
0.00012305
0.00012012
0.00012012
0.00012305
0.00012012
0.00012012
0.00012012
0.00012598
0.00012891
0.00013184
0.00013477
0.00013477
0.0001377
0.00014062
0.00013477
0.0001377
0.00013184
0.00012891
0.00012305
0.00011719
0.00011426
0.0001084
0.00010547
0.00010254
9.668e-05
9.668e-05
9.082e-05
8.7891e-05
8.2031e-05
8.2031e-05
7.9102e-05
7.3242e-05
6.7383e-05
6.1523e-05
5.2734e-05
4.6875e-05
3.5156e-05
2.3437e-05
1.1719e-05
0
-5.8594e-06
-1.4648e-05
-1.7578e-05
-2.3437e-05
-3.2227e-05
-3.8086e-05
-4.3945e-05
-4.6875e-05
-4.9805e-05
-5.5664e-05
-5.8594e-05
-6.4453e-05
-7.0312e-05
-7.3242e-05
-8.2031e-05
-8.4961e-05
-8.7891e-05
-9.082e-05
-9.668e-05
-0.00010254
-0.00010547
-0.00011133
-0.00011719
-0.00012305
-0.00012891
-0.00013184
-0.00013477
-0.0001377
-0.00014062
-0.00014062
-0.00014062
-0.00014355
-0.00014355
-0.00014648
-0.00014941
-0.00014941
-0.00015234
-0.00015234
-0.00015234
-0.00014648
-0.00014355
-0.00014355
-0.00014355
-0.00014648
-0.00014648
-0.00014648
-0.00014648
-0.00014648
-0.00014648
-0.00014648
-0.00014355
-0.00014062
-0.0001377
-0.0001377
-0.0001377
-0.00013477
-0.00013184
-0.00013184
-0.00012891
-0.00012305
-0.00011719
-0.00011719
-0.00011133
-0.00010547
-0.00010254
-9.668e-05
-9.375e-05
-9.082e-05
-8.7891e-05
-8.7891e-05
-8.2031e-05
-8.2031e-05
-7.9102e-05
-7.6172e-05
-7.6172e-05
-7.3242e-05
-7.3242e-05
-6.7383e-05
-6.7383e-05
-6.4453e-05
-5.8594e-05
-5.5664e-05
-4.9805e-05
-4.3945e-05
-4.1016e-05
-3.8086e-05
-3.8086e-05
-3.8086e-05
-3.5156e-05
-3.5156e-05
-3.2227e-05
-3.5156e-05
-3.2227e-05
-3.2227e-05
-3.2227e-05
-2.9297e-05
-2.9297e-05
-2.9297e-05
-2.9297e-05
-3.2227e-05
-2.9297e-05
-2.6367e-05
-2.3437e-05
-2.3437e-05
-2.0508e-05
-2.0508e-05
-2.3437e-05
-2.3437e-05
-2.3437e-05
-2.3437e-05
-2.3437e-05
-2.9297e-05
-3.2227e-05
-3.8086e-05
-3.8086e-05
-3.8086e-05
-4.1016e-05
-4.6875e-05
-4.6875e-05
-4.9805e-05
-4.9805e-05
-5.2734e-05
-5.5664e-05
-5.8594e-05
-5.8594e-05
-5.8594e-05
-6.1523e-05
-6.1523e-05
-6.4453e-05
-6.7383e-05
-6.7383e-05
-6.7383e-05
-7.0312e-05
-7.3242e-05
-7.3242e-05
-7.3242e-05
-7.3242e-05
-7.3242e-05
-7.6172e-05
-7.9102e-05
-7.6172e-05
-7.6172e-05
-7.6172e-05
-7.3242e-05
-7.3242e-05
-7.3242e-05
-7.0312e-05
-6.7383e-05
-6.7383e-05
-6.7383e-05
-6.7383e-05
-6.4453e-05
-6.1523e-05
-6.1523e-05
-6.1523e-05
-5.8594e-05
-5.5664e-05
-5.5664e-05
-5.5664e-05
-5.5664e-05
-5.2734e-05
-5.2734e-05
-5.2734e-05
-5.2734e-05
-5.5664e-05
-5.5664e-05
-5.5664e-05
-5.2734e-05
-4.9805e-05
-4.6875e-05
-4.1016e-05
-3.8086e-05
-3.5156e-05
-3.5156e-05
-3.8086e-05
-3.8086e-05
-3.8086e-05
-3.5156e-05
-3.2227e-05
-3.2227e-05
-3.2227e-05
-3.5156e-05
-3.5156e-05
-3.8086e-05
-3.8086e-05
-3.5156e-05
-3.2227e-05
-2.9297e-05
-2.3437e-05
-2.3437e-05
-2.3437e-05
-2.6367e-05
-2.6367e-05
-2.9297e-05
-2.9297e-05
-2.9297e-05
-2.9297e-05
-2.6367e-05
-2.6367e-05
-2.6367e-05
-2.3437e-05
-2.0508e-05
-2.0508e-05
-1.7578e-05
-1.7578e-05
-1.4648e-05
-1.7578e-05
-1.4648e-05
-1.4648e-05
-1.7578e-05
-1.4648e-05
-2.0508e-05
-1.7578e-05
-1.7578e-05
-1.4648e-05
-1.4648e-05
-1.4648e-05
-1.1719e-05
-1.4648e-05
-1.7578e-05
-1.4648e-05
-1.1719e-05
-8.7891e-06
-8.7891e-06
-1.1719e-05
-1.1719e-05
-1.1719e-05
-1.1719e-05
-8.7891e-06
-8.7891e-06
-1.1719e-05
-1.4648e-05
-1.4648e-05
-2.0508e-05
-2.0508e-05
-2.3437e-05
-2.3437e-05
-2.0508e-05
-2.0508e-05
-1.7578e-05
-1.7578e-05
-2.0508e-05
-2.0508e-05
-2.0508e-05
-2.0508e-05
-2.3437e-05
-2.6367e-05
-2.9297e-05
-2.9297e-05
-2.6367e-05
-2.3437e-05
-2.3437e-05
-2.3437e-05
-2.3437e-05
-2.3437e-05
-2.3437e-05
-2.3437e-05
-2.0508e-05
-2.0508e-05
-1.7578e-05
-1.1719e-05
-1.4648e-05
-1.4648e-05
-1.1719e-05
-8.7891e-06
-5.8594e-06
-5.8594e-06
-2.9297e-06
-2.9297e-06
-2.9297e-06
0
0
2.9297e-06
5.8594e-06
5.8594e-06
1.1719e-05
1.1719e-05
1.1719e-05
1.1719e-05
1.1719e-05
1.4648e-05
1.1719e-05
1.4648e-05
1.1719e-05
8.7891e-06
5.8594e-06
8.7891e-06
1.1719e-05
1.1719e-05
1.4648e-05
1.7578e-05
1.4648e-05
1.1719e-05
8.7891e-06
8.7891e-06
8.7891e-06
2.9297e-06
0
0
-2.9297e-06
-2.9297e-06
-5.8594e-06
-5.8594e-06
-8.7891e-06
-1.1719e-05
-8.7891e-06
-1.1719e-05
-1.4648e-05
-1.7578e-05
-2.0508e-05
-1.7578e-05
-2.0508e-05
-2.3437e-05
-2.6367e-05
-3.2227e-05
-3.2227e-05
-3.5156e-05
-3.5156e-05
-3.5156e-05
-3.5156e-05
-3.5156e-05
-3.5156e-05
-3.8086e-05
-3.8086e-05
-3.8086e-05
-3.5156e-05
-3.2227e-05
-2.9297e-05
-2.9297e-05
-3.2227e-05
-2.9297e-05
-3.2227e-05
-2.9297e-05
-2.9297e-05
-2.9297e-05
-2.9297e-05
-2.6367e-05
-2.3437e-05
-2.3437e-05
-2.3437e-05
-2.6367e-05
-2.3437e-05
-2.0508e-05
-1.7578e-05
-1.7578e-05
-1.7578e-05
-1.7578e-05
-1.4648e-05
-1.4648e-05
-2.0508e-05
-2.0508e-05
-2.3437e-05
-2.3437e-05
-2.0508e-05
-2.0508e-05
-1.1719e-05
-1.1719e-05
-1.1719e-05
-1.4648e-05
-1.4648e-05
-1.1719e-05
-1.1719e-05
-1.1719e-05
-1.1719e-05
-1.1719e-05
-5.8594e-06
-5.8594e-06
-2.9297e-06
0
2.9297e-06
5.8594e-06
8.7891e-06
8.7891e-06
8.7891e-06
1.4648e-05
1.7578e-05
1.7578e-05
1.7578e-05
1.7578e-05
1.7578e-05
1.4648e-05
1.4648e-05
1.1719e-05
5.8594e-06
5.8594e-06
8.7891e-06
1.1719e-05
1.4648e-05
1.7578e-05
2.0508e-05
2.3437e-05
2.3437e-05
2.3437e-05
2.0508e-05
2.0508e-05
2.0508e-05
2.0508e-05
2.0508e-05
2.0508e-05
2.0508e-05
2.0508e-05
1.7578e-05
1.7578e-05
2.0508e-05
2.3437e-05
2.6367e-05
2.6367e-05
2.6367e-05
2.0508e-05
1.7578e-05
1.4648e-05
8.7891e-06
5.8594e-06
2.9297e-06
0
-2.9297e-06
-5.8594e-06
-5.8594e-06
-8.7891e-06
-8.7891e-06
-8.7891e-06
-8.7891e-06
-1.1719e-05
-1.1719e-05
-1.7578e-05
-1.7578e-05
-1.4648e-05
-1.4648e-05
-1.4648e-05
-1.4648e-05
-1.4648e-05
-1.4648e-05
-1.4648e-05
-1.7578e-05
-2.0508e-05
-1.7578e-05
-1.7578e-05
-1.4648e-05
-1.4648e-05
-1.4648e-05
-1.4648e-05
-1.4648e-05
-1.4648e-05
-2.0508e-05
-2.0508e-05
-2.3437e-05
-2.6367e-05
-2.9297e-05
-3.2227e-05
-2.9297e-05
-2.6367e-05
-2.3437e-05
-2.3437e-05
-2.3437e-05
-2.3437e-05
-2.3437e-05
-2.3437e-05
-2.3437e-05
-2.6367e-05
-2.3437e-05
-2.3437e-05
-2.0508e-05
-2.0508e-05
-2.0508e-05
-1.7578e-05
-1.4648e-05
-1.1719e-05
-1.1719e-05
-8.7891e-06
-8.7891e-06
-2.9297e-06
0
2.9297e-06
8.7891e-06
8.7891e-06
1.1719e-05
1.1719e-05
1.1719e-05
8.7891e-06
8.7891e-06
8.7891e-06
8.7891e-06
8.7891e-06
8.7891e-06
8.7891e-06
1.1719e-05
1.1719e-05
1.4648e-05
1.7578e-05
1.7578e-05
1.7578e-05
1.7578e-05
2.0508e-05
2.6367e-05
2.9297e-05
3.2227e-05
3.2227e-05
3.8086e-05
4.1016e-05
4.6875e-05
5.5664e-05
5.5664e-05
5.8594e-05
6.4453e-05
6.7383e-05
6.7383e-05
6.7383e-05
6.7383e-05
6.4453e-05
6.4453e-05
6.4453e-05
6.7383e-05
6.7383e-05
6.4453e-05
6.1523e-05
6.1523e-05
5.8594e-05
5.8594e-05
5.8594e-05
6.1523e-05
6.4453e-05
6.4453e-05
6.4453e-05
6.1523e-05
5.5664e-05
5.5664e-05
4.9805e-05
4.3945e-05
4.1016e-05
3.2227e-05
2.6367e-05
2.0508e-05
1.4648e-05
1.1719e-05
8.7891e-06
8.7891e-06
8.7891e-06
8.7891e-06
2.9297e-06
-2.9297e-06
-2.9297e-06
-8.7891e-06
-1.1719e-05
-1.7578e-05
-2.3437e-05
-2.6367e-05
-2.9297e-05
-3.2227e-05
-3.5156e-05
-3.5156e-05
-3.2227e-05
-3.5156e-05
-3.5156e-05
-3.5156e-05
-3.5156e-05
-3.8086e-05
-4.3945e-05
-4.3945e-05
-4.1016e-05
-4.1016e-05
-3.8086e-05
-3.8086e-05
-3.8086e-05
-3.8086e-05
-3.8086e-05
-3.5156e-05
-3.8086e-05
-3.8086e-05
-3.8086e-05
-3.8086e-05
-3.5156e-05
-3.5156e-05
-3.5156e-05
-2.9297e-05
-3.2227e-05
-2.9297e-05
-2.9297e-05
-2.9297e-05
-3.5156e-05
-3.5156e-05
-3.5156e-05
-3.5156e-05
-3.5156e-05
-3.2227e-05
-2.6367e-05
-2.3437e-05
-1.7578e-05
-1.7578e-05
-1.7578e-05
-1.7578e-05
-1.4648e-05
-1.4648e-05
-1.4648e-05
-1.4648e-05
-1.4648e-05
-1.4648e-05
-1.4648e-05
-1.1719e-05
-1.1719e-05
-5.8594e-06
-2.9297e-06
0
8.7891e-06
1.4648e-05
2.0508e-05
3.2227e-05
4.1016e-05
5.5664e-05
7.0312e-05
8.2031e-05
9.9609e-05
0.00011133
0.00012598
0.00014062
0.0001582
0.00017578
0.00019336
0.00021387
0.00023145
0.00025195
0.00026953
0.00028125
0.00029004
0.0002959
0.0002959
0.00029297
0.00028418
0.00027246
0.00026367
0.00024902
0.00022559
0.00019922
0.00016699
0.00013184
9.082e-05
4.9805e-05
2.9297e-06
-3.8086e-05
-8.2031e-05
-0.00012598
-0.00016992
-0.00021387
-0.00025781
-0.0002959
-0.00033105
-0.00036035
-0.00038086
-0.00038965
-0.00039258
-0.00038672
-0.000375
-0.00036328
-0.00035156
-0.00033691
-0.00032227
-0.00030469
-0.00028711
-0.00027246
-0.00025781
-0.00024609
-0.00022852
-0.00021094
-0.00019629
-0.00018457
-0.00016699
-0.00015234
-0.0001377
-0.00011719
-0.00010547
-9.375e-05
-8.2031e-05
-7.6172e-05
-7.0312e-05
-5.8594e-05
-4.9805e-05
-4.1016e-05
-3.8086e-05
-3.5156e-05
-2.9297e-05
-2.3437e-05
-1.7578e-05
-1.4648e-05
-5.8594e-06
0
2.9297e-06
8.7891e-06
1.1719e-05
1.4648e-05
1.7578e-05
1.7578e-05
2.0508e-05
1.7578e-05
1.4648e-05
1.7578e-05
1.7578e-05
1.7578e-05
1.7578e-05
1.7578e-05
2.0508e-05
2.0508e-05
2.3437e-05
2.3437e-05
2.6367e-05
3.2227e-05
3.2227e-05
3.2227e-05
2.9297e-05
3.2227e-05
3.5156e-05
3.8086e-05
4.3945e-05
4.3945e-05
4.6875e-05
4.6875e-05
4.6875e-05
4.9805e-05
4.6875e-05
4.6875e-05
4.6875e-05
4.6875e-05
4.6875e-05
4.9805e-05
5.5664e-05
5.8594e-05
6.1523e-05
6.4453e-05
6.4453e-05
6.7383e-05
6.7383e-05
6.4453e-05
6.4453e-05
6.4453e-05
6.1523e-05
6.1523e-05
6.1523e-05
6.4453e-05
6.1523e-05
5.5664e-05
5.5664e-05
5.8594e-05
5.8594e-05
5.8594e-05
6.1523e-05
6.1523e-05
6.4453e-05
6.7383e-05
6.7383e-05
7.0312e-05
7.0312e-05
7.3242e-05
7.3242e-05
7.0312e-05
7.3242e-05
7.3242e-05
7.3242e-05
7.3242e-05
7.0312e-05
7.0312e-05
7.0312e-05
7.0312e-05
7.0312e-05
7.0312e-05
7.0312e-05
6.7383e-05
6.4453e-05
6.4453e-05
6.1523e-05
6.1523e-05
6.4453e-05
6.7383e-05
6.7383e-05
6.4453e-05
6.4453e-05
6.7383e-05
7.0312e-05
7.0312e-05
7.0312e-05
7.0312e-05
7.0312e-05
7.0312e-05
7.3242e-05
7.0312e-05
7.0312e-05
7.3242e-05
7.6172e-05
7.6172e-05
7.9102e-05
7.3242e-05
7.6172e-05
7.9102e-05
7.9102e-05
8.2031e-05
8.2031e-05
8.2031e-05
7.9102e-05
8.2031e-05
8.2031e-05
8.4961e-05
8.7891e-05
8.4961e-05
8.7891e-05
8.7891e-05
9.082e-05
9.082e-05
8.7891e-05
8.7891e-05
8.2031e-05
7.9102e-05
7.9102e-05
7.9102e-05
7.6172e-05
7.0312e-05
7.3242e-05
7.3242e-05
7.3242e-05
7.3242e-05
7.9102e-05
8.2031e-05
8.4961e-05
8.7891e-05
9.082e-05
9.375e-05
9.375e-05
9.668e-05
9.668e-05
9.9609e-05
9.668e-05
9.9609e-05
9.668e-05
9.668e-05
9.668e-05
9.9609e-05
0.00010547
0.0001084
0.0001084
0.00010547
0.00010254
9.9609e-05
9.668e-05
9.375e-05
9.082e-05
8.7891e-05
8.7891e-05
8.4961e-05
7.9102e-05
7.3242e-05
6.7383e-05
6.4453e-05
6.1523e-05
5.8594e-05
5.5664e-05
5.2734e-05
4.9805e-05
4.3945e-05
3.5156e-05
2.6367e-05
2.0508e-05
1.4648e-05
8.7891e-06
2.9297e-06
0
-5.8594e-06
-1.1719e-05
-1.7578e-05
-2.3437e-05
-2.9297e-05
-3.8086e-05
-3.8086e-05
-4.1016e-05
-4.1016e-05
-3.8086e-05
-3.8086e-05
-4.1016e-05
-4.6875e-05
-4.9805e-05
-5.5664e-05
-5.8594e-05
-6.1523e-05
-6.7383e-05
-7.3242e-05
-7.9102e-05
-8.4961e-05
-8.7891e-05
-9.082e-05
-9.375e-05
-9.668e-05
-9.9609e-05
-0.00010547
-0.00010547
-0.00011133
-0.00011426
-0.00011426
-0.00011719
-0.00012305
-0.00012305
-0.00012305
-0.00012305
-0.00012305
-0.00012598
-0.00012891
-0.00013184
-0.00013184
-0.00012891
-0.00012305
-0.00012012
-0.00011719
-0.00011719
-0.00011719
-0.00011719
-0.00011426
-0.00011426
-0.00011426
-0.00011426
-0.00011426
-0.0001084
-0.00010547
-0.00010547
-0.00010547
-0.00010547
-0.00010547
-0.00010547
-0.00010547
-0.00010547
-0.00010547
-0.00010254
-9.668e-05
-9.668e-05
-9.375e-05
-9.375e-05
-9.375e-05
-9.082e-05
-9.375e-05
-9.375e-05
-9.375e-05
-9.375e-05
-8.7891e-05
-8.4961e-05
-8.2031e-05
-7.6172e-05
-7.3242e-05
-7.3242e-05
-7.6172e-05
-7.6172e-05
-7.6172e-05
-7.9102e-05
-7.6172e-05
-7.6172e-05
-7.6172e-05
-7.6172e-05
-7.9102e-05
-7.9102e-05
-7.9102e-05
-7.9102e-05
-7.6172e-05
-7.6172e-05
-7.3242e-05
-7.3242e-05
-7.3242e-05
-7.3242e-05
-7.3242e-05
-7.3242e-05
-7.3242e-05
-7.6172e-05
-8.2031e-05
-8.4961e-05
-8.4961e-05
-8.4961e-05
-8.2031e-05
-8.2031e-05
-8.7891e-05
-9.082e-05
-8.7891e-05
-8.4961e-05
-8.4961e-05
-8.4961e-05
-7.9102e-05
-8.2031e-05
-8.4961e-05
-8.2031e-05
-8.2031e-05
-7.9102e-05
-8.2031e-05
-7.9102e-05
-7.6172e-05
-7.6172e-05
-7.3242e-05
-7.3242e-05
-7.3242e-05
-7.3242e-05
-7.3242e-05
-7.3242e-05
-7.6172e-05
-7.9102e-05
-7.9102e-05
-8.2031e-05
-7.9102e-05
-7.9102e-05
-7.9102e-05
-8.2031e-05
-8.2031e-05
-7.9102e-05
-7.6172e-05
-7.6172e-05
-7.3242e-05
-7.3242e-05
-7.0312e-05
-7.0312e-05
-7.0312e-05
-7.0312e-05
-6.7383e-05
-6.4453e-05
-6.4453e-05
-6.4453e-05
-5.8594e-05
-5.5664e-05
-5.5664e-05
-5.5664e-05
-5.2734e-05
-5.2734e-05
-4.9805e-05
-4.3945e-05
-4.3945e-05
-4.1016e-05
-4.1016e-05
-4.1016e-05
-3.8086e-05
-3.5156e-05
-3.2227e-05
-3.2227e-05
-2.9297e-05
-2.9297e-05
-2.6367e-05
-2.3437e-05
-2.6367e-05
-2.6367e-05
-2.6367e-05
-2.9297e-05
-2.9297e-05
-3.2227e-05
-3.5156e-05
-3.2227e-05
-3.5156e-05
-3.8086e-05
-3.8086e-05
-3.5156e-05
-3.2227e-05
-3.5156e-05
-3.5156e-05
-3.2227e-05
-2.9297e-05
-2.6367e-05
-2.3437e-05
-2.0508e-05
-2.0508e-05
-1.7578e-05
-1.4648e-05
-1.1719e-05
-1.1719e-05
-1.1719e-05
-1.4648e-05
-1.1719e-05
-1.4648e-05
-1.4648e-05
-1.4648e-05
-1.4648e-05
-2.0508e-05
-2.0508e-05
-2.0508e-05
-2.0508e-05
-2.0508e-05
-1.7578e-05
-1.7578e-05
-1.4648e-05
-1.7578e-05
-1.7578e-05
-1.4648e-05
-1.7578e-05
-2.0508e-05
-2.0508e-05
-2.0508e-05
-2.0508e-05
-2.0508e-05
-1.7578e-05
-1.1719e-05
-1.1719e-05
-1.1719e-05
-8.7891e-06
-2.9297e-06
-5.8594e-06
-5.8594e-06
-2.9297e-06
-2.9297e-06
-2.9297e-06
-2.9297e-06
-2.9297e-06
-5.8594e-06
-5.8594e-06
-8.7891e-06
-8.7891e-06
-5.8594e-06
-8.7891e-06
-8.7891e-06
-1.1719e-05
-1.1719e-05
-1.4648e-05
-1.4648e-05
-1.7578e-05
-2.0508e-05
-2.0508e-05
-2.0508e-05
-1.7578e-05
-1.4648e-05
-1.1719e-05
-1.1719e-05
-5.8594e-06
-2.9297e-06
0
0
0
0
0
0
0
0
2.9297e-06
2.9297e-06
2.9297e-06
2.9297e-06
5.8594e-06
2.9297e-06
5.8594e-06
0
0
-2.9297e-06
-5.8594e-06
-8.7891e-06
-1.1719e-05
-8.7891e-06
-5.8594e-06
-5.8594e-06
0
0
2.9297e-06
5.8594e-06
5.8594e-06
5.8594e-06
2.9297e-06
-2.9297e-06
-2.9297e-06
-5.8594e-06
-5.8594e-06
-5.8594e-06
-5.8594e-06
-2.9297e-06
0
0
0
-2.9297e-06
-2.9297e-06
-2.9297e-06
-5.8594e-06
-5.8594e-06
-5.8594e-06
-5.8594e-06
-8.7891e-06
-1.1719e-05
-1.4648e-05
-1.4648e-05
-1.1719e-05
-1.1719e-05
-8.7891e-06
-8.7891e-06
-8.7891e-06
-5.8594e-06
-8.7891e-06
-1.1719e-05
-1.1719e-05
-1.4648e-05
-1.4648e-05
-1.4648e-05
-1.1719e-05
-1.4648e-05
-1.4648e-05
-1.1719e-05
-1.1719e-05
-8.7891e-06
-8.7891e-06
-5.8594e-06
-8.7891e-06
-1.1719e-05
-1.1719e-05
-1.4648e-05
-1.4648e-05
-1.4648e-05
-1.4648e-05
-1.4648e-05
-1.4648e-05
-1.7578e-05
-1.7578e-05
-1.7578e-05
-1.4648e-05
-1.4648e-05
-1.1719e-05
-8.7891e-06
-5.8594e-06
0
0
0
0
-2.9297e-06
-2.9297e-06
0
-2.9297e-06
-2.9297e-06
-5.8594e-06
-5.8594e-06
-8.7891e-06
-1.1719e-05
-8.7891e-06
-8.7891e-06
-5.8594e-06
-5.8594e-06
-2.9297e-06
-5.8594e-06
-8.7891e-06
-2.9297e-06
-2.9297e-06
0
2.9297e-06
0
2.9297e-06
2.9297e-06
2.9297e-06
8.7891e-06
8.7891e-06
1.1719e-05
1.1719e-05
1.4648e-05
1.7578e-05
1.7578e-05
1.7578e-05
1.7578e-05
1.7578e-05
1.7578e-05
1.4648e-05
1.7578e-05
1.4648e-05
1.7578e-05
1.7578e-05
2.0508e-05
2.3437e-05
2.6367e-05
2.6367e-05
2.3437e-05
2.0508e-05
2.0508e-05
1.7578e-05
1.4648e-05
1.1719e-05
5.8594e-06
0
-2.9297e-06
-2.9297e-06
-5.8594e-06
-5.8594e-06
-2.9297e-06
-5.8594e-06
-2.9297e-06
-2.9297e-06
-5.8594e-06
-5.8594e-06
-5.8594e-06
-8.7891e-06
-8.7891e-06
-8.7891e-06
-8.7891e-06
-8.7891e-06
-8.7891e-06
-8.7891e-06
-5.8594e-06
-5.8594e-06
-5.8594e-06
-8.7891e-06
-5.8594e-06
-8.7891e-06
-1.1719e-05
-1.1719e-05
-1.1719e-05
-1.1719e-05
-1.1719e-05
-1.1719e-05
-1.4648e-05
-1.4648e-05
-1.7578e-05
-2.0508e-05
-2.3437e-05
-2.3437e-05
-2.9297e-05
-2.9297e-05
-2.9297e-05
-2.9297e-05
-3.2227e-05
-3.5156e-05
-3.5156e-05
-3.5156e-05
-3.5156e-05
-3.8086e-05
-3.5156e-05
-3.5156e-05
-3.5156e-05
-3.5156e-05
-3.5156e-05
-2.9297e-05
-2.9297e-05
-2.6367e-05
-2.3437e-05
-2.0508e-05
-2.0508e-05
-2.0508e-05
-1.7578e-05
-1.4648e-05
-1.4648e-05
-1.4648e-05
-1.1719e-05
-1.1719e-05
-1.1719e-05
-1.4648e-05
-1.1719e-05
-1.4648e-05
-1.1719e-05
-8.7891e-06
-8.7891e-06
-1.1719e-05
-1.1719e-05
-1.1719e-05
-8.7891e-06
-8.7891e-06
-5.8594e-06
-5.8594e-06
-2.9297e-06
-5.8594e-06
-5.8594e-06
-5.8594e-06
-5.8594e-06
-5.8594e-06
-5.8594e-06
-5.8594e-06
-2.9297e-06
-2.9297e-06
0
2.9297e-06
2.9297e-06
5.8594e-06
8.7891e-06
8.7891e-06
1.1719e-05
1.1719e-05
1.7578e-05
2.0508e-05
2.0508e-05
2.6367e-05
2.3437e-05
2.6367e-05
2.9297e-05
2.9297e-05
2.6367e-05
2.6367e-05
2.3437e-05
2.3437e-05
2.0508e-05
2.0508e-05
2.0508e-05
1.7578e-05
1.1719e-05
1.1719e-05
1.1719e-05
1.1719e-05
1.1719e-05
1.1719e-05
1.1719e-05
1.1719e-05
1.1719e-05
1.1719e-05
1.1719e-05
8.7891e-06
8.7891e-06
8.7891e-06
1.1719e-05
1.1719e-05
8.7891e-06
1.1719e-05
1.1719e-05
1.4648e-05
1.1719e-05
1.4648e-05
1.7578e-05
1.4648e-05
1.1719e-05
1.1719e-05
8.7891e-06
8.7891e-06
2.9297e-06
2.9297e-06
2.9297e-06
0
0
-2.9297e-06
-2.9297e-06
-5.8594e-06
-1.1719e-05
-1.1719e-05
-1.4648e-05
-1.1719e-05
-1.1719e-05
-8.7891e-06
-5.8594e-06
-5.8594e-06
-5.8594e-06
-2.9297e-06
-2.9297e-06
0
0
0
2.9297e-06
5.8594e-06
8.7891e-06
5.8594e-06
5.8594e-06
8.7891e-06
8.7891e-06
1.1719e-05
1.4648e-05
1.7578e-05
1.7578e-05
1.4648e-05
1.7578e-05
1.7578e-05
1.7578e-05
1.7578e-05
2.0508e-05
2.0508e-05
2.0508e-05
1.4648e-05
1.1719e-05
8.7891e-06
1.1719e-05
1.4648e-05
1.4648e-05
1.4648e-05
1.4648e-05
1.1719e-05
8.7891e-06
8.7891e-06
2.9297e-06
2.9297e-06
0
-2.9297e-06
-5.8594e-06
-1.1719e-05
-1.7578e-05
-2.0508e-05
-2.3437e-05
-2.6367e-05
-2.9297e-05
-3.2227e-05
-2.9297e-05
-3.2227e-05
-3.2227e-05
-3.2227e-05
-3.5156e-05
-3.5156e-05
-3.5156e-05
-3.2227e-05
-3.2227e-05
-3.2227e-05
-3.2227e-05
-3.5156e-05
-3.5156e-05
-3.2227e-05
-2.9297e-05
-2.3437e-05
-2.3437e-05
-2.0508e-05
-1.7578e-05
-1.4648e-05
-1.4648e-05
-1.4648e-05
-8.7891e-06
-8.7891e-06
-8.7891e-06
-8.7891e-06
-5.8594e-06
-2.9297e-06
2.9297e-06
5.8594e-06
5.8594e-06
2.9297e-06
2.9297e-06
2.9297e-06
0
0
-2.9297e-06
-5.8594e-06
-8.7891e-06
-1.1719e-05
-1.1719e-05
-1.1719e-05
-1.1719e-05
-1.1719e-05
-1.1719e-05
-8.7891e-06
-1.1719e-05
-1.1719e-05
-1.1719e-05
-8.7891e-06
-5.8594e-06
-2.9297e-06
0
0
0
2.9297e-06
2.9297e-06
2.9297e-06
5.8594e-06
8.7891e-06
1.7578e-05
2.6367e-05
3.5156e-05
4.9805e-05
6.1523e-05
7.0312e-05
8.2031e-05
9.668e-05
0.00011426
0.00013477
0.00015234
0.00017285
0.00019043
0.00020508
0.00021973
0.00023437
0.00024316
0.00025488
0.00026074
0.00026367
0.00026953
0.00026953
0.00026367
0.00025488
0.00023437
0.00021094
0.00018457
0.00014941
0.00011133
7.0312e-05
2.0508e-05
-3.2227e-05
-8.2031e-05
-0.00013184
-0.00017578
-0.00022266
-0.00026953
-0.00031055
-0.00034863
-0.00037793
-0.00040137
-0.00041309
-0.00041309
-0.00041016
-0.00039844
-0.00038379
-0.00036621
-0.00035156
-0.00033691
-0.00031934
-0.00030176
-0.00028711
-0.00027539
-0.00026074
-0.00024609
-0.00022559
-0.00021094
-0.00019336
-0.00018164
-0.00016406
-0.00014648
-0.00013184
-0.00011719
-0.00010547
-9.9609e-05
-9.668e-05
-9.082e-05
-7.9102e-05
-6.4453e-05
-5.2734e-05
-4.1016e-05
-3.2227e-05
-2.6367e-05
-2.6367e-05
-2.3437e-05
-1.7578e-05
-1.1719e-05
-5.8594e-06
-2.9297e-06
-2.9297e-06
-2.9297e-06
0
2.9297e-06
2.9297e-06
5.8594e-06
8.7891e-06
1.1719e-05
1.1719e-05
1.7578e-05
2.0508e-05
2.3437e-05
2.6367e-05
2.9297e-05
3.2227e-05
2.9297e-05
2.9297e-05
2.9297e-05
2.9297e-05
3.2227e-05
3.2227e-05
3.5156e-05
4.1016e-05
4.3945e-05
4.3945e-05
4.6875e-05
4.6875e-05
4.6875e-05
4.9805e-05
4.9805e-05
5.2734e-05
5.5664e-05
5.8594e-05
6.1523e-05
6.1523e-05
6.4453e-05
6.7383e-05
6.7383e-05
6.7383e-05
6.7383e-05
6.7383e-05
6.7383e-05
7.0312e-05
7.6172e-05
7.9102e-05
8.2031e-05
8.4961e-05
8.2031e-05
8.2031e-05
8.2031e-05
8.2031e-05
7.9102e-05
7.6172e-05
7.6172e-05
7.3242e-05
7.6172e-05
7.6172e-05
7.6172e-05
7.9102e-05
7.9102e-05
7.9102e-05
8.2031e-05
7.9102e-05
7.6172e-05
7.3242e-05
7.0312e-05
7.0312e-05
6.7383e-05
6.7383e-05
6.7383e-05
6.4453e-05
5.8594e-05
5.5664e-05
5.2734e-05
5.5664e-05
5.8594e-05
6.1523e-05
6.4453e-05
6.4453e-05
6.4453e-05
6.4453e-05
6.4453e-05
6.4453e-05
6.4453e-05
6.4453e-05
6.4453e-05
5.8594e-05
5.5664e-05
5.5664e-05
5.5664e-05
5.5664e-05
5.5664e-05
5.2734e-05
4.6875e-05
4.9805e-05
4.9805e-05
5.2734e-05
5.2734e-05
5.5664e-05
5.8594e-05
6.1523e-05
6.1523e-05
6.7383e-05
6.7383e-05
7.0312e-05
7.0312e-05
7.0312e-05
6.7383e-05
6.7383e-05
6.1523e-05
5.8594e-05
5.8594e-05
5.8594e-05
6.1523e-05
6.4453e-05
6.4453e-05
6.4453e-05
6.7383e-05
7.0312e-05
7.0312e-05
7.3242e-05
7.6172e-05
8.2031e-05
8.4961e-05
8.4961e-05
8.4961e-05
8.7891e-05
8.7891e-05
9.082e-05
9.082e-05
9.375e-05
9.668e-05
9.668e-05
0.00010254
0.00010254
0.00010547
0.00010547
0.00010547
0.00010547
0.00010547
0.00010547
0.0001084
0.00011133
0.00011133
0.00011133
0.00011133
0.00011133
0.00011426
0.00011426
0.00011133
0.00011133
0.00011133
0.00010547
0.00010254
9.9609e-05
9.668e-05
9.668e-05
9.668e-05
9.668e-05
9.375e-05
9.082e-05
9.082e-05
8.4961e-05
7.9102e-05
7.9102e-05
7.9102e-05
7.3242e-05
7.0312e-05
6.7383e-05
6.1523e-05
5.5664e-05
4.9805e-05
4.3945e-05
4.1016e-05
3.5156e-05
2.6367e-05
2.3437e-05
1.7578e-05
8.7891e-06
2.9297e-06
0
-2.9297e-06
-1.1719e-05
-1.4648e-05
-2.0508e-05
-2.6367e-05
-3.5156e-05
-4.3945e-05
-4.9805e-05
-5.2734e-05
-5.8594e-05
-5.8594e-05
-6.1523e-05
-6.7383e-05
-7.0312e-05
-7.6172e-05
-7.9102e-05
-8.4961e-05
-8.7891e-05
-9.375e-05
-9.9609e-05
-0.0001084
-0.00011719
-0.00012012
-0.00012598
-0.00012598
-0.00012598
-0.00012598
-0.00012891
-0.00013184
-0.0001377
-0.00014062
-0.00014355
-0.00014648
-0.00014648
-0.00014941
-0.00014941
-0.00015234
-0.00015527
-0.00015527
-0.0001582
-0.00015527
-0.0001582
-0.0001582
-0.00015527
-0.00015234
-0.00014648
-0.00014648
-0.00014355
-0.00014062
-0.00014062
-0.00014062
-0.00014355
-0.00014648
-0.00014941
-0.00014648
-0.00014648
-0.00014648
-0.00014355
-0.00014062
-0.0001377
-0.00013184
-0.00013184
-0.00012891
-0.00012598
-0.00012305
-0.00012012
-0.00011719
-0.00011719
-0.00011133
-0.0001084
-0.00010547
-0.00010547
-0.00010254
-0.00010254
-9.9609e-05
-9.9609e-05
-9.668e-05
-9.668e-05
-9.375e-05
-9.375e-05
-9.375e-05
-9.375e-05
-9.375e-05
-9.082e-05
-9.082e-05
-9.082e-05
-8.4961e-05
-8.2031e-05
-7.9102e-05
-7.6172e-05
-7.3242e-05
-7.3242e-05
-7.3242e-05
-7.6172e-05
-7.9102e-05
-7.6172e-05
-7.3242e-05
-7.3242e-05
-7.0312e-05
-6.7383e-05
-6.4453e-05
-6.1523e-05
-5.8594e-05
-6.1523e-05
-5.8594e-05
-6.1523e-05
-6.4453e-05
-6.4453e-05
-6.4453e-05
-6.7383e-05
-6.4453e-05
-6.4453e-05
-6.7383e-05
-6.7383e-05
-6.7383e-05
-7.0312e-05
-7.3242e-05
-7.3242e-05
-7.0312e-05
-7.0312e-05
-6.7383e-05
-6.7383e-05
-6.7383e-05
-6.7383e-05
-6.7383e-05
-6.7383e-05
-6.7383e-05
-6.4453e-05
-6.7383e-05
-7.0312e-05
-7.3242e-05
-7.0312e-05
-7.0312e-05
-7.0312e-05
-7.3242e-05
-7.0312e-05
-7.0312e-05
-7.0312e-05
-7.0312e-05
-6.7383e-05
-6.4453e-05
-6.1523e-05
-5.8594e-05
-5.8594e-05
-5.5664e-05
-5.2734e-05
-5.2734e-05
-4.9805e-05
-4.9805e-05
-4.9805e-05
-4.9805e-05
-4.9805e-05
-4.9805e-05
-5.2734e-05
-5.5664e-05
-5.8594e-05
-5.8594e-05
-5.8594e-05
-5.2734e-05
-4.9805e-05
-4.6875e-05
-4.6875e-05
-4.3945e-05
-4.3945e-05
-4.3945e-05
-4.1016e-05
-4.1016e-05
-4.3945e-05
-4.3945e-05
-4.3945e-05
-4.3945e-05
-3.8086e-05
-3.5156e-05
-3.2227e-05
-3.2227e-05
-3.2227e-05
-3.2227e-05
-3.2227e-05
-3.2227e-05
-3.2227e-05
-2.9297e-05
-3.2227e-05
-3.5156e-05
-3.5156e-05
-3.8086e-05
-3.5156e-05
-3.5156e-05
-3.5156e-05
-3.5156e-05
-3.8086e-05
-3.8086e-05
-3.2227e-05
-2.9297e-05
-2.6367e-05
-2.6367e-05
-2.3437e-05
-1.7578e-05
-1.4648e-05
-1.1719e-05
-1.1719e-05
-8.7891e-06
-8.7891e-06
-8.7891e-06
-2.9297e-06
-5.8594e-06
-1.1719e-05
-1.7578e-05
-2.0508e-05
-1.7578e-05
-1.4648e-05
-1.4648e-05
-1.4648e-05
-1.4648e-05
-1.4648e-05
-1.7578e-05
-1.4648e-05
-1.7578e-05
-1.7578e-05
-1.7578e-05
-1.7578e-05
-1.4648e-05
-1.7578e-05
-1.7578e-05
-1.7578e-05
-1.7578e-05
-1.7578e-05
-1.7578e-05
-1.7578e-05
-1.4648e-05
-1.1719e-05
-8.7891e-06
-8.7891e-06
-1.1719e-05
-1.4648e-05
-1.7578e-05
-2.0508e-05
-1.7578e-05
-1.7578e-05
-2.0508e-05
-2.6367e-05
-2.6367e-05
-2.6367e-05
-2.6367e-05
-2.6367e-05
-2.9297e-05
-3.2227e-05
-3.2227e-05
-3.2227e-05
-3.2227e-05
-3.2227e-05
-3.2227e-05
-2.9297e-05
-2.6367e-05
-2.3437e-05
-2.3437e-05
-2.3437e-05
-2.3437e-05
-2.3437e-05
-2.3437e-05
-2.3437e-05
-2.3437e-05
-2.0508e-05
-2.0508e-05
-2.3437e-05
-2.3437e-05
-2.0508e-05
-1.7578e-05
-1.4648e-05
-1.1719e-05
-1.1719e-05
-5.8594e-06
-5.8594e-06
-5.8594e-06
-8.7891e-06
-8.7891e-06
-1.1719e-05
-1.1719e-05
-1.1719e-05
-8.7891e-06
-1.1719e-05
-8.7891e-06
-1.1719e-05
-1.1719e-05
-1.1719e-05
-1.1719e-05
-1.1719e-05
-1.4648e-05
-1.7578e-05
-1.4648e-05
-1.7578e-05
-2.0508e-05
-2.3437e-05
-2.0508e-05
-2.0508e-05
-1.7578e-05
-1.4648e-05
-1.4648e-05
-1.7578e-05
-2.0508e-05
-2.3437e-05
-2.3437e-05
-2.0508e-05
-2.3437e-05
-2.0508e-05
-2.3437e-05
-2.3437e-05
-2.3437e-05
-2.3437e-05
-2.9297e-05
-3.2227e-05
-3.5156e-05
-3.8086e-05
-3.8086e-05
-3.8086e-05
-3.5156e-05
-2.9297e-05
-2.9297e-05
-2.6367e-05
-2.3437e-05
-2.0508e-05
-2.0508e-05
-2.3437e-05
-2.3437e-05
-2.6367e-05
-2.9297e-05
-3.2227e-05
-3.2227e-05
-3.2227e-05
-3.2227e-05
-2.9297e-05
-2.6367e-05
-2.6367e-05
-2.3437e-05
-1.7578e-05
-1.4648e-05
-1.4648e-05
-1.7578e-05
-1.7578e-05
-1.7578e-05
-1.7578e-05
-2.0508e-05
-2.0508e-05
-1.7578e-05
-1.4648e-05
-1.4648e-05
-1.4648e-05
-1.1719e-05
-8.7891e-06
-5.8594e-06
-8.7891e-06
-5.8594e-06
-2.9297e-06
-5.8594e-06
-2.9297e-06
-2.9297e-06
-5.8594e-06
-5.8594e-06
-2.9297e-06
-2.9297e-06
-2.9297e-06
-2.9297e-06
0
2.9297e-06
2.9297e-06
2.9297e-06
5.8594e-06
8.7891e-06
8.7891e-06
8.7891e-06
8.7891e-06
1.1719e-05
1.1719e-05
8.7891e-06
5.8594e-06
2.9297e-06
0
0
-2.9297e-06
-2.9297e-06
-2.9297e-06
-2.9297e-06
-2.9297e-06
2.9297e-06
5.8594e-06
8.7891e-06
8.7891e-06
1.1719e-05
1.4648e-05
1.4648e-05
1.1719e-05
1.1719e-05
8.7891e-06
2.9297e-06
0
-2.9297e-06
0
-2.9297e-06
-2.9297e-06
-2.9297e-06
0
2.9297e-06
2.9297e-06
5.8594e-06
2.9297e-06
5.8594e-06
5.8594e-06
5.8594e-06
5.8594e-06
2.9297e-06
-2.9297e-06
-5.8594e-06
-8.7891e-06
-1.1719e-05
-1.1719e-05
-1.1719e-05
-1.1719e-05
-1.4648e-05
-1.4648e-05
-1.4648e-05
-2.0508e-05
-2.0508e-05
-2.0508e-05
-2.3437e-05
-2.3437e-05
-2.3437e-05
-2.3437e-05
-2.3437e-05
-2.3437e-05
-2.0508e-05
-2.0508e-05
-2.0508e-05
-1.7578e-05
-1.7578e-05
-1.4648e-05
-1.4648e-05
-1.4648e-05
-2.0508e-05
-2.0508e-05
-1.7578e-05
-2.0508e-05
-2.0508e-05
-2.3437e-05
-2.0508e-05
-1.7578e-05
-2.0508e-05
-2.0508e-05
-2.0508e-05
-2.0508e-05
-1.4648e-05
-1.1719e-05
-1.1719e-05
-1.1719e-05
-1.4648e-05
-1.4648e-05
-1.1719e-05
-8.7891e-06
-5.8594e-06
-5.8594e-06
-8.7891e-06
-5.8594e-06
-2.9297e-06
-2.9297e-06
-2.9297e-06
-2.9297e-06
-5.8594e-06
-8.7891e-06
-5.8594e-06
-5.8594e-06
-2.9297e-06
-2.9297e-06
-2.9297e-06
-5.8594e-06
-2.9297e-06
0
-2.9297e-06
0
0
5.8594e-06
5.8594e-06
8.7891e-06
1.1719e-05
1.4648e-05
1.7578e-05
2.3437e-05
2.3437e-05
2.6367e-05
2.6367e-05
2.3437e-05
2.3437e-05
2.0508e-05
2.0508e-05
2.0508e-05
2.0508e-05
1.7578e-05
1.7578e-05
1.7578e-05
1.4648e-05
1.4648e-05
1.4648e-05
1.4648e-05
1.7578e-05
1.7578e-05
1.7578e-05
1.4648e-05
1.4648e-05
1.1719e-05
8.7891e-06
8.7891e-06
8.7891e-06
8.7891e-06
8.7891e-06
8.7891e-06
2.9297e-06
0
0
-2.9297e-06
-2.9297e-06
0
0
0
0
0
-2.9297e-06
-2.9297e-06
-2.9297e-06
0
2.9297e-06
2.9297e-06
2.9297e-06
2.9297e-06
5.8594e-06
5.8594e-06
8.7891e-06
1.1719e-05
1.4648e-05
1.1719e-05
8.7891e-06
8.7891e-06
8.7891e-06
8.7891e-06
8.7891e-06
8.7891e-06
5.8594e-06
5.8594e-06
8.7891e-06
1.1719e-05
1.1719e-05
8.7891e-06
8.7891e-06
5.8594e-06
8.7891e-06
8.7891e-06
8.7891e-06
8.7891e-06
1.1719e-05
1.7578e-05
2.3437e-05
2.6367e-05
2.6367e-05
2.6367e-05
3.2227e-05
3.5156e-05
3.8086e-05
3.8086e-05
3.8086e-05
4.3945e-05
4.9805e-05
4.9805e-05
4.9805e-05
4.9805e-05
4.9805e-05
4.9805e-05
5.2734e-05
5.5664e-05
5.5664e-05
5.5664e-05
5.5664e-05
5.2734e-05
5.2734e-05
4.9805e-05
4.6875e-05
4.3945e-05
4.1016e-05
3.8086e-05
3.8086e-05
3.5156e-05
3.5156e-05
3.8086e-05
4.1016e-05
3.5156e-05
3.5156e-05
3.2227e-05
2.9297e-05
2.6367e-05
2.0508e-05
1.7578e-05
8.7891e-06
5.8594e-06
2.9297e-06
2.9297e-06
2.9297e-06
2.9297e-06
2.9297e-06
2.9297e-06
2.9297e-06
0
0
-2.9297e-06
-2.9297e-06
0
0
-2.9297e-06
-2.9297e-06
-2.9297e-06
-2.9297e-06
-2.9297e-06
-2.9297e-06
0
0
0
0
0
0
0
-2.9297e-06
-5.8594e-06
-8.7891e-06
-1.1719e-05
-8.7891e-06
-8.7891e-06
-8.7891e-06
-1.1719e-05
-1.1719e-05
-8.7891e-06
-1.1719e-05
-1.1719e-05
-1.4648e-05
-1.4648e-05
-1.7578e-05
-2.0508e-05
-1.4648e-05
-1.4648e-05
-1.4648e-05
-1.7578e-05
-1.4648e-05
-1.4648e-05
-1.4648e-05
-1.4648e-05
-1.4648e-05
-1.4648e-05
-1.4648e-05
-1.7578e-05
-1.7578e-05
-2.0508e-05
-2.0508e-05
-1.7578e-05
-2.0508e-05
-2.0508e-05
-1.7578e-05
-1.1719e-05
-2.9297e-06
5.8594e-06
2.0508e-05
3.5156e-05
4.9805e-05
6.7383e-05
8.2031e-05
9.668e-05
0.00011426
0.00013184
0.00014941
0.00016699
0.00018164
0.00019629
0.00021094
0.00021973
0.00023145
0.00024023
0.00024609
0.00025781
0.0002666
0.0002666
0.0002666
0.00026074
0.00024902
0.00023145
0.00020801
0.00017871
0.00014062
9.668e-05
5.2734e-05
5.8594e-06
-4.1016e-05
-9.082e-05
-0.00013477
-0.00018164
-0.00023145
-0.00027246
-0.00031348
-0.0003457
-0.000375
-0.00039844
-0.00041016
-0.00041309
-0.0004043
-0.00039258
-0.00038086
-0.00036621
-0.00035156
-0.00033105
-0.00031055
-0.00029297
-0.00027246
-0.00025488
-0.0002373
-0.00022559
-0.00021387
-0.00020215
-0.0001875
-0.00017285
-0.00015527
-0.0001377
-0.00012012
-0.00010547
-9.082e-05
-8.2031e-05
-7.0312e-05
-6.1523e-05
-5.2734e-05
-4.6875e-05
-3.8086e-05
-2.9297e-05
-2.3437e-05
-1.7578e-05
-1.1719e-05
-5.8594e-06
0
5.8594e-06
8.7891e-06
1.1719e-05
1.1719e-05
1.1719e-05
1.7578e-05
2.0508e-05
2.3437e-05
2.9297e-05
3.2227e-05
3.2227e-05
3.2227e-05
3.2227e-05
2.9297e-05
2.9297e-05
3.2227e-05
3.2227e-05
3.2227e-05
3.2227e-05
3.5156e-05
3.8086e-05
3.8086e-05
3.8086e-05
4.1016e-05
4.1016e-05
3.8086e-05
3.5156e-05
3.5156e-05
3.8086e-05
4.1016e-05
4.3945e-05
4.6875e-05
4.9805e-05
5.2734e-05
5.2734e-05
4.9805e-05
4.6875e-05
4.6875e-05
4.6875e-05
4.3945e-05
4.3945e-05
4.9805e-05
4.9805e-05
5.2734e-05
5.5664e-05
5.5664e-05
5.8594e-05
5.8594e-05
6.1523e-05
6.4453e-05
6.7383e-05
6.7383e-05
6.7383e-05
6.7383e-05
6.7383e-05
7.0312e-05
7.0312e-05
7.0312e-05
7.0312e-05
7.0312e-05
6.7383e-05
6.7383e-05
6.7383e-05
6.7383e-05
7.0312e-05
7.3242e-05
7.3242e-05
7.0312e-05
7.3242e-05
7.3242e-05
7.0312e-05
6.7383e-05
7.0312e-05
7.3242e-05
7.9102e-05
8.2031e-05
8.2031e-05
7.9102e-05
7.6172e-05
7.3242e-05
7.3242e-05
7.3242e-05
7.0312e-05
7.0312e-05
6.7383e-05
7.0312e-05
7.0312e-05
7.0312e-05
7.0312e-05
7.0312e-05
7.0312e-05
6.7383e-05
6.4453e-05
6.7383e-05
6.7383e-05
6.7383e-05
6.4453e-05
6.1523e-05
5.8594e-05
5.5664e-05
5.5664e-05
5.5664e-05
5.2734e-05
5.5664e-05
5.8594e-05
5.8594e-05
5.8594e-05
5.8594e-05
5.8594e-05
5.8594e-05
5.8594e-05
6.4453e-05
6.7383e-05
7.0312e-05
7.0312e-05
7.0312e-05
7.3242e-05
7.3242e-05
7.9102e-05
7.6172e-05
7.6172e-05
7.3242e-05
7.6172e-05
8.2031e-05
8.2031e-05
8.4961e-05
8.4961e-05
8.4961e-05
8.2031e-05
8.4961e-05
8.4961e-05
8.4961e-05
8.7891e-05
8.7891e-05
8.7891e-05
8.4961e-05
8.4961e-05
8.7891e-05
9.082e-05
9.375e-05
9.668e-05
9.9609e-05
9.9609e-05
0.00010254
0.00010254
0.0001084
0.00011133
0.00011133
0.00011426
0.00011426
0.00011426
0.00011133
0.0001084
0.00010547
0.00010254
9.9609e-05
9.668e-05
9.668e-05
0.00010254
0.00010254
0.00010254
0.00010254
9.9609e-05
9.668e-05
9.668e-05
9.082e-05
9.082e-05
8.2031e-05
8.2031e-05
7.9102e-05
7.3242e-05
7.0312e-05
6.4453e-05
5.8594e-05
4.6875e-05
4.1016e-05
3.5156e-05
2.9297e-05
2.3437e-05
2.0508e-05
1.1719e-05
5.8594e-06
-2.9297e-06
-5.8594e-06
-1.1719e-05
-2.0508e-05
-2.6367e-05
-3.5156e-05
-4.1016e-05
-4.6875e-05
-4.9805e-05
-5.8594e-05
-6.1523e-05
-6.7383e-05
-7.3242e-05
-7.6172e-05
-7.9102e-05
-8.2031e-05
-8.4961e-05
-8.7891e-05
-8.7891e-05
-9.082e-05
-9.375e-05
-9.375e-05
-9.9609e-05
-0.00010547
-0.00011426
-0.00012305
-0.00012891
-0.00013184
-0.0001377
-0.00014062
-0.00014355
-0.00014648
-0.00015234
-0.00015234
-0.00015234
-0.00015234
-0.00015234
-0.00015527
-0.00015527
-0.00015527
-0.00015234
-0.00015527
-0.0001582
-0.00015527
-0.00015527
-0.00015527
-0.00015234
-0.00015527
-0.00015527
-0.00015527
-0.00015527
-0.0001582
-0.0001582
-0.0001582
-0.0001582
-0.0001582
-0.00015527
-0.00015234
-0.00014941
-0.00014648
-0.00014355
-0.00014062
-0.00014062
-0.00014062
-0.0001377
-0.00013184
-0.00012891
-0.00013184
-0.00012891
-0.00012891
-0.00012598
-0.00012305
-0.00012012
-0.00011719
-0.00011719
-0.00011719
-0.00011719
-0.00012012
-0.00012012
-0.00011719
-0.00012012
-0.00012012
-0.00011719
-0.00011719
-0.00011719
-0.00012012
-0.00012012
-0.00012012
-0.00011719
-0.00011719
-0.00011719
-0.00011426
-0.00011426
-0.00011719
-0.00011719
-0.00011426
-0.00011133
-0.00011133
-0.0001084
-0.00010547
-9.9609e-05
-9.375e-05
-9.375e-05
-9.082e-05
-8.7891e-05
-8.7891e-05
-8.7891e-05
-9.082e-05
-8.7891e-05
-9.082e-05
-9.082e-05
-8.7891e-05
-8.7891e-05
-8.4961e-05
-8.4961e-05
-8.4961e-05
-8.4961e-05
-8.4961e-05
-8.7891e-05
-8.7891e-05
-8.7891e-05
-9.082e-05
-9.082e-05
-9.375e-05
-9.082e-05
-8.4961e-05
-8.2031e-05
-8.2031e-05
-8.2031e-05
-8.2031e-05
-7.9102e-05
-7.6172e-05
-7.3242e-05
-7.3242e-05
-7.3242e-05
-7.3242e-05
-7.3242e-05
-7.0312e-05
-6.7383e-05
-6.4453e-05
-6.1523e-05
-6.7383e-05
-6.7383e-05
-6.7383e-05
-6.4453e-05
-6.4453e-05
-6.1523e-05
-5.8594e-05
-5.8594e-05
-5.8594e-05
-5.8594e-05
-5.8594e-05
-5.5664e-05
-5.2734e-05
-5.2734e-05
-5.2734e-05
-4.9805e-05
-4.9805e-05
-5.2734e-05
-5.2734e-05
-5.2734e-05
-5.2734e-05
-5.2734e-05
-5.2734e-05
-4.9805e-05
-4.9805e-05
-4.9805e-05
-4.9805e-05
-4.6875e-05
-4.6875e-05
-4.6875e-05
-4.6875e-05
-4.6875e-05
-4.6875e-05
-4.6875e-05
-4.6875e-05
-4.1016e-05
-4.1016e-05
-3.8086e-05
-3.5156e-05
-3.2227e-05
-2.9297e-05
-2.9297e-05
-2.9297e-05
-2.9297e-05
-2.9297e-05
-2.9297e-05
-3.2227e-05
-3.5156e-05
-3.8086e-05
-3.8086e-05
-3.8086e-05
-3.5156e-05
-3.2227e-05
-3.2227e-05
-3.2227e-05
-3.2227e-05
-3.2227e-05
-2.9297e-05
-2.6367e-05
-2.6367e-05
-2.3437e-05
-2.0508e-05
-2.0508e-05
-2.0508e-05
-2.3437e-05
-2.3437e-05
-2.3437e-05
-2.6367e-05
-3.2227e-05
-3.2227e-05
-3.5156e-05
-3.5156e-05
-3.2227e-05
-2.9297e-05
-2.9297e-05
-2.6367e-05
-2.6367e-05
-2.3437e-05
-2.3437e-05
-2.3437e-05
-2.3437e-05
-2.0508e-05
-2.0508e-05
-1.7578e-05
-1.7578e-05
-1.4648e-05
-1.4648e-05
-1.4648e-05
-1.7578e-05
-2.0508e-05
-1.7578e-05
-2.0508e-05
-2.0508e-05
-2.3437e-05
-2.6367e-05
-2.6367e-05
-2.6367e-05
-2.9297e-05
-2.6367e-05
-2.9297e-05
-2.9297e-05
-3.2227e-05
-2.9297e-05
-2.9297e-05
-2.9297e-05
-2.6367e-05
-2.6367e-05
-2.6367e-05
-2.3437e-05
-2.3437e-05
-2.3437e-05
-2.3437e-05
-2.0508e-05
-2.0508e-05
-1.7578e-05
-1.4648e-05
-1.4648e-05
-1.7578e-05
-2.0508e-05
-2.3437e-05
-2.0508e-05
-2.3437e-05
-2.3437e-05
-2.0508e-05
-1.7578e-05
-1.4648e-05
-1.1719e-05
-1.4648e-05
-1.7578e-05
-1.7578e-05
-1.7578e-05
-1.7578e-05
-1.4648e-05
-1.1719e-05
-8.7891e-06
-5.8594e-06
0
2.9297e-06
2.9297e-06
5.8594e-06
8.7891e-06
8.7891e-06
5.8594e-06
5.8594e-06
5.8594e-06
5.8594e-06
2.9297e-06
5.8594e-06
5.8594e-06
8.7891e-06
1.1719e-05
1.1719e-05
8.7891e-06
5.8594e-06
5.8594e-06
5.8594e-06
8.7891e-06
1.1719e-05
1.4648e-05
1.4648e-05
1.4648e-05
1.4648e-05
1.4648e-05
1.7578e-05
1.7578e-05
1.7578e-05
1.7578e-05
1.1719e-05
1.4648e-05
1.1719e-05
1.4648e-05
1.7578e-05
1.4648e-05
1.1719e-05
8.7891e-06
5.8594e-06
8.7891e-06
8.7891e-06
8.7891e-06
8.7891e-06
8.7891e-06
5.8594e-06
0
-2.9297e-06
-2.9297e-06
-5.8594e-06
-5.8594e-06
-1.1719e-05
-1.1719e-05
-1.1719e-05
-8.7891e-06
-1.1719e-05
-8.7891e-06
-8.7891e-06
-1.1719e-05
-1.1719e-05
-1.4648e-05
-1.7578e-05
-1.7578e-05
-1.7578e-05
-1.7578e-05
-2.0508e-05
-1.7578e-05
-1.7578e-05
-1.4648e-05
-1.4648e-05
-1.4648e-05
-1.7578e-05
-1.1719e-05
-8.7891e-06
-5.8594e-06
-8.7891e-06
-1.4648e-05
-2.0508e-05
-2.3437e-05
-2.6367e-05
-2.9297e-05
-3.2227e-05
-3.5156e-05
-3.5156e-05
-3.2227e-05
-3.2227e-05
-2.9297e-05
-2.3437e-05
-2.0508e-05
-1.7578e-05
-1.4648e-05
-1.4648e-05
-1.4648e-05
-1.1719e-05
-8.7891e-06
-5.8594e-06
-2.9297e-06
0
0
2.9297e-06
5.8594e-06
5.8594e-06
8.7891e-06
8.7891e-06
1.1719e-05
1.1719e-05
1.1719e-05
1.1719e-05
8.7891e-06
8.7891e-06
8.7891e-06
8.7891e-06
8.7891e-06
8.7891e-06
8.7891e-06
8.7891e-06
5.8594e-06
5.8594e-06
2.9297e-06
2.9297e-06
2.9297e-06
5.8594e-06
8.7891e-06
1.7578e-05
1.4648e-05
1.1719e-05
8.7891e-06
8.7891e-06
8.7891e-06
1.1719e-05
1.4648e-05
1.7578e-05
1.4648e-05
1.4648e-05
1.4648e-05
1.4648e-05
1.4648e-05
1.7578e-05
1.4648e-05
1.1719e-05
8.7891e-06
8.7891e-06
8.7891e-06
8.7891e-06
8.7891e-06
5.8594e-06
0
0
-2.9297e-06
-5.8594e-06
-2.9297e-06
-5.8594e-06
-8.7891e-06
-5.8594e-06
-2.9297e-06
-2.9297e-06
0
2.9297e-06
2.9297e-06
0
-2.9297e-06
-5.8594e-06
-8.7891e-06
-8.7891e-06
-1.1719e-05
-1.1719e-05
-1.4648e-05
-1.4648e-05
-1.4648e-05
-1.1719e-05
-5.8594e-06
-8.7891e-06
-5.8594e-06
-8.7891e-06
-8.7891e-06
-1.1719e-05
-8.7891e-06
-5.8594e-06
-8.7891e-06
-1.1719e-05
-1.1719e-05
-1.1719e-05
-1.1719e-05
-1.1719e-05
-8.7891e-06
-1.1719e-05
-1.1719e-05
-8.7891e-06
-8.7891e-06
-5.8594e-06
-8.7891e-06
-1.1719e-05
-1.1719e-05
-1.1719e-05
-1.1719e-05
-1.1719e-05
-8.7891e-06
-5.8594e-06
-2.9297e-06
0
2.9297e-06
5.8594e-06
8.7891e-06
8.7891e-06
1.1719e-05
1.4648e-05
1.7578e-05
2.0508e-05
2.0508e-05
2.0508e-05
2.0508e-05
2.0508e-05
2.3437e-05
2.3437e-05
2.6367e-05
2.3437e-05
2.6367e-05
3.2227e-05
3.5156e-05
3.8086e-05
3.5156e-05
3.2227e-05
3.5156e-05
3.5156e-05
4.1016e-05
4.3945e-05
4.6875e-05
4.9805e-05
5.5664e-05
5.8594e-05
5.8594e-05
6.1523e-05
6.1523e-05
6.4453e-05
6.4453e-05
6.4453e-05
6.4453e-05
7.0312e-05
7.0312e-05
7.3242e-05
7.3242e-05
7.0312e-05
7.0312e-05
7.0312e-05
7.3242e-05
7.0312e-05
6.7383e-05
6.4453e-05
5.8594e-05
5.8594e-05
5.2734e-05
4.9805e-05
4.3945e-05
3.8086e-05
3.2227e-05
3.2227e-05
2.9297e-05
2.3437e-05
2.0508e-05
2.0508e-05
2.0508e-05
1.4648e-05
1.1719e-05
8.7891e-06
5.8594e-06
2.9297e-06
0
0
-2.9297e-06
-5.8594e-06
-1.1719e-05
-8.7891e-06
-1.1719e-05
-1.1719e-05
-1.7578e-05
-2.0508e-05
-2.0508e-05
-2.0508e-05
-2.3437e-05
-2.3437e-05
-2.3437e-05
-2.0508e-05
-2.0508e-05
-2.0508e-05
-2.0508e-05
-2.3437e-05
-2.6367e-05
-2.6367e-05
-2.6367e-05
-2.3437e-05
-2.0508e-05
-1.4648e-05
-1.4648e-05
-1.1719e-05
-1.4648e-05
-2.0508e-05
-2.0508e-05
-2.3437e-05
-2.6367e-05
-2.6367e-05
-2.9297e-05
-2.9297e-05
-2.6367e-05
-2.3437e-05
-2.3437e-05
-2.0508e-05
-1.7578e-05
-1.1719e-05
-1.1719e-05
-8.7891e-06
-1.1719e-05
-1.4648e-05
-2.0508e-05
-2.0508e-05
-2.3437e-05
-2.6367e-05
-2.6367e-05
-2.3437e-05
-2.3437e-05
-2.0508e-05
-1.4648e-05
-1.4648e-05
-1.4648e-05
-1.1719e-05
-8.7891e-06
-2.9297e-06
0
5.8594e-06
1.7578e-05
3.2227e-05
4.3945e-05
5.8594e-05
7.3242e-05
8.4961e-05
9.668e-05
0.00011426
0.00012891
0.00014648
0.00016406
0.00018164
0.00019336
0.00020508
0.00021387
0.00022559
0.0002373
0.00024316
0.00025195
0.00025781
0.00025781
0.00025195
0.00024609
0.00023437
0.00021973
0.00019043
0.00016406
0.00012891
9.082e-05
4.9805e-05
5.8594e-06
-4.1016e-05
-9.082e-05
-0.0001377
-0.00018457
-0.00023145
-0.00027246
-0.00031055
-0.00034277
-0.00037207
-0.00039551
-0.00040723
-0.00041309
-0.00040137
-0.00038965
-0.000375
-0.00036035
-0.00034277
-0.00032227
-0.00030176
-0.00028711
-0.0002666
-0.00025488
-0.00024023
-0.00022852
-0.00021387
-0.00019922
-0.00018457
-0.00017285
-0.00016113
-0.00014355
-0.00012305
-0.00011133
-9.9609e-05
-8.7891e-05
-8.2031e-05
-7.3242e-05
-7.0312e-05
-6.1523e-05
-5.8594e-05
-5.2734e-05
-4.6875e-05
-4.1016e-05
-3.5156e-05
-2.3437e-05
-1.4648e-05
-5.8594e-06
0
0
8.7891e-06
1.1719e-05
1.7578e-05
2.0508e-05
2.3437e-05
2.3437e-05
2.6367e-05
2.6367e-05
2.9297e-05
2.9297e-05
3.2227e-05
2.9297e-05
2.9297e-05
2.9297e-05
2.9297e-05
2.6367e-05
2.6367e-05
2.6367e-05
2.6367e-05
2.9297e-05
2.9297e-05
3.2227e-05
3.2227e-05
3.2227e-05
3.2227e-05
3.5156e-05
3.5156e-05
4.1016e-05
3.8086e-05
3.8086e-05
4.1016e-05
4.3945e-05
4.6875e-05
4.3945e-05
4.6875e-05
4.9805e-05
5.5664e-05
6.1523e-05
6.4453e-05
6.4453e-05
6.4453e-05
6.1523e-05
6.4453e-05
6.7383e-05
6.7383e-05
7.0312e-05
7.0312e-05
7.3242e-05
7.6172e-05
7.9102e-05
8.2031e-05
7.9102e-05
7.9102e-05
8.2031e-05
8.2031e-05
8.2031e-05
8.4961e-05
8.7891e-05
8.7891e-05
8.7891e-05
8.7891e-05
8.4961e-05
8.4961e-05
8.2031e-05
8.2031e-05
8.2031e-05
8.4961e-05
9.082e-05
9.375e-05
9.375e-05
9.375e-05
9.375e-05
9.375e-05
9.375e-05
9.375e-05
9.082e-05
8.7891e-05
9.082e-05
9.082e-05
9.082e-05
9.082e-05
9.082e-05
8.7891e-05
9.082e-05
9.375e-05
9.375e-05
9.082e-05
9.082e-05
8.7891e-05
8.7891e-05
8.7891e-05
8.7891e-05
9.082e-05
9.082e-05
9.082e-05
8.4961e-05
8.2031e-05
8.2031e-05
8.2031e-05
8.2031e-05
7.9102e-05
7.9102e-05
7.9102e-05
7.9102e-05
7.9102e-05
7.9102e-05
7.9102e-05
8.2031e-05
7.9102e-05
8.2031e-05
8.4961e-05
8.7891e-05
8.7891e-05
8.7891e-05
9.082e-05
9.082e-05
9.375e-05
9.668e-05
9.668e-05
0.00010254
0.00010547
0.00010254
0.00010254
9.668e-05
9.375e-05
9.082e-05
9.082e-05
9.082e-05
9.082e-05
8.7891e-05
8.7891e-05
9.082e-05
9.082e-05
9.668e-05
9.9609e-05
0.00010254
0.00010254
0.00010547
0.00010547
0.00010547
0.00010547
0.0001084
0.0001084
0.00010547
0.00010547
0.00010547
0.00010547
0.00010547
0.00010254
9.9609e-05
9.9609e-05
9.668e-05
9.9609e-05
9.9609e-05
9.668e-05
9.375e-05
8.7891e-05
8.7891e-05
8.2031e-05
7.9102e-05
7.6172e-05
7.3242e-05
6.7383e-05
6.4453e-05
6.4453e-05
5.8594e-05
5.5664e-05
5.2734e-05
4.6875e-05
4.3945e-05
3.8086e-05
3.5156e-05
3.5156e-05
3.2227e-05
2.6367e-05
2.3437e-05
1.4648e-05
8.7891e-06
0
-5.8594e-06
-8.7891e-06
-1.1719e-05
-1.7578e-05
-2.3437e-05
-2.9297e-05
-3.2227e-05
-3.8086e-05
-3.8086e-05
-4.3945e-05
-4.6875e-05
-4.9805e-05
-5.5664e-05
-6.1523e-05
-7.0312e-05
-7.6172e-05
-8.4961e-05
-9.082e-05
-9.082e-05
-9.375e-05
-9.668e-05
-9.9609e-05
-0.00010254
-0.00010547
-0.00010547
-0.0001084
-0.00011426
-0.00011719
-0.00012305
-0.00012598
-0.00012891
-0.00012891
-0.00013184
-0.00012891
-0.00012598
-0.00012012
-0.00012012
-0.00012012
-0.00012012
-0.00011719
-0.00011426
-0.00011426
-0.00011719
-0.00012012
-0.00012305
-0.00012891
-0.00012891
-0.00012598
-0.00012305
-0.00012012
-0.00012012
-0.00011426
-0.00011133
-0.0001084
-0.0001084
-0.00011133
-0.00011133
-0.00011133
-0.00011133
-0.00011426
-0.00011426
-0.00011133
-0.00011133
-0.0001084
-0.0001084
-0.00010547
-0.00010547
-9.9609e-05
-9.668e-05
-9.668e-05
-9.375e-05
-9.082e-05
-9.082e-05
-8.7891e-05
-8.4961e-05
-8.4961e-05
-8.2031e-05
-8.2031e-05
-8.4961e-05
-8.7891e-05
-8.7891e-05
-8.7891e-05
-9.082e-05
-9.375e-05
-9.082e-05
-9.375e-05
-9.375e-05
-9.375e-05
-9.082e-05
-9.375e-05
-9.375e-05
-9.082e-05
-9.375e-05
-9.668e-05
-9.668e-05
-9.668e-05
-9.9609e-05
-9.9609e-05
-9.9609e-05
-9.9609e-05
-9.9609e-05
-9.9609e-05
-9.668e-05
-9.9609e-05
-9.668e-05
-9.9609e-05
-9.9609e-05
-9.9609e-05
-9.9609e-05
-9.9609e-05
-9.9609e-05
-9.9609e-05
-9.9609e-05
-9.668e-05
-9.9609e-05
-9.9609e-05
-9.668e-05
-9.375e-05
-9.375e-05
-9.375e-05
-9.9609e-05
-9.9609e-05
-9.9609e-05
-0.00010254
-9.9609e-05
-9.668e-05
-9.668e-05
-9.375e-05
-9.375e-05
-9.375e-05
-9.082e-05
-8.7891e-05
-8.7891e-05
-8.4961e-05
-8.4961e-05
-8.4961e-05
-8.4961e-05
-8.4961e-05
-8.4961e-05
-8.2031e-05
-8.2031e-05
-8.2031e-05
-7.6172e-05
-7.3242e-05
-7.3242e-05
-7.0312e-05
-6.7383e-05
-6.7383e-05
-6.7383e-05
-6.4453e-05
-6.1523e-05
-5.8594e-05
-5.8594e-05
-5.8594e-05
-5.8594e-05
-5.5664e-05
-5.2734e-05
-4.9805e-05
-4.6875e-05
-4.6875e-05
-4.6875e-05
-4.3945e-05
-4.1016e-05
-3.8086e-05
-3.5156e-05
-3.5156e-05
-2.9297e-05
-2.9297e-05
-2.9297e-05
-3.2227e-05
-3.2227e-05
-3.2227e-05
-3.5156e-05
-3.5156e-05
-3.8086e-05
-3.8086e-05
-3.8086e-05
-3.8086e-05
-3.8086e-05
-3.8086e-05
-3.5156e-05
-3.2227e-05
-3.2227e-05
-2.6367e-05
-2.0508e-05
-1.4648e-05
-1.4648e-05
-1.4648e-05
-1.4648e-05
-1.7578e-05
-1.7578e-05
-1.4648e-05
-2.0508e-05
-1.7578e-05
-1.7578e-05
-1.4648e-05
-1.7578e-05
-1.7578e-05
-1.7578e-05
-1.4648e-05
-1.1719e-05
-8.7891e-06
-8.7891e-06
-2.9297e-06
-2.9297e-06
-2.9297e-06
0
-2.9297e-06
-2.9297e-06
-2.9297e-06
-2.9297e-06
0
0
2.9297e-06
5.8594e-06
8.7891e-06
8.7891e-06
1.1719e-05
1.1719e-05
1.7578e-05
1.4648e-05
1.4648e-05
8.7891e-06
5.8594e-06
0
-2.9297e-06
-5.8594e-06
-8.7891e-06
-8.7891e-06
-8.7891e-06
-8.7891e-06
-1.1719e-05
-1.1719e-05
-1.1719e-05
-1.1719e-05
-1.1719e-05
-5.8594e-06
-5.8594e-06
-2.9297e-06
-2.9297e-06
-2.9297e-06
-5.8594e-06
-5.8594e-06
-2.9297e-06
-8.7891e-06
-1.4648e-05
-2.3437e-05
-2.6367e-05
-2.3437e-05
-2.3437e-05
-2.3437e-05
-2.0508e-05
-2.0508e-05
-1.4648e-05
-1.1719e-05
-1.1719e-05
-1.1719e-05
-1.1719e-05
-1.1719e-05
-8.7891e-06
-8.7891e-06
-5.8594e-06
-2.9297e-06
-2.9297e-06
-2.9297e-06
-2.9297e-06
-5.8594e-06
-8.7891e-06
-8.7891e-06
-8.7891e-06
-8.7891e-06
-1.1719e-05
-1.1719e-05
-1.4648e-05
-2.0508e-05
-2.0508e-05
-2.0508e-05
-1.7578e-05
-1.4648e-05
-1.1719e-05
-1.1719e-05
-8.7891e-06
-1.1719e-05
-8.7891e-06
-5.8594e-06
-8.7891e-06
-1.1719e-05
-1.1719e-05
-1.4648e-05
-1.4648e-05
-1.4648e-05
-1.1719e-05
-1.1719e-05
-1.1719e-05
-1.1719e-05
-1.1719e-05
-1.1719e-05
-1.1719e-05
-1.1719e-05
-8.7891e-06
-8.7891e-06
-1.1719e-05
-1.4648e-05
-1.4648e-05
-1.7578e-05
-2.0508e-05
-2.3437e-05
-2.6367e-05
-2.9297e-05
-3.2227e-05
-2.9297e-05
-2.6367e-05
-2.6367e-05
-2.3437e-05
-2.3437e-05
-2.3437e-05
-2.0508e-05
-1.7578e-05
-1.4648e-05
-1.4648e-05
-1.1719e-05
-1.4648e-05
-1.4648e-05
-1.7578e-05
-2.0508e-05
-2.3437e-05
-2.6367e-05
-2.9297e-05
-3.2227e-05
-3.2227e-05
-3.5156e-05
-3.2227e-05
-3.2227e-05
-3.5156e-05
-3.8086e-05
-3.8086e-05
-3.8086e-05
-3.5156e-05
-3.5156e-05
-3.5156e-05
-3.2227e-05
-2.9297e-05
-2.9297e-05
-2.6367e-05
-2.3437e-05
-2.0508e-05
-2.0508e-05
-2.0508e-05
-2.0508e-05
-2.0508e-05
-1.7578e-05
-1.4648e-05
-1.1719e-05
-1.1719e-05
-1.1719e-05
-1.1719e-05
-8.7891e-06
-8.7891e-06
-8.7891e-06
-8.7891e-06
-5.8594e-06
-2.9297e-06
-2.9297e-06
-2.9297e-06
-2.9297e-06
-2.9297e-06
0
0
2.9297e-06
5.8594e-06
8.7891e-06
1.1719e-05
1.4648e-05
1.4648e-05
1.1719e-05
1.1719e-05
1.1719e-05
1.1719e-05
1.1719e-05
8.7891e-06
8.7891e-06
5.8594e-06
2.9297e-06
5.8594e-06
5.8594e-06
5.8594e-06
2.9297e-06
5.8594e-06
8.7891e-06
5.8594e-06
8.7891e-06
8.7891e-06
5.8594e-06
2.9297e-06
0
2.9297e-06
5.8594e-06
2.9297e-06
2.9297e-06
2.9297e-06
0
0
-2.9297e-06
-5.8594e-06
-5.8594e-06
-2.9297e-06
-2.9297e-06
-8.7891e-06
-5.8594e-06
-8.7891e-06
-8.7891e-06
-1.1719e-05
-1.1719e-05
-1.4648e-05
-1.1719e-05
-1.1719e-05
-1.1719e-05
-1.1719e-05
-1.4648e-05
-1.4648e-05
-1.7578e-05
-2.0508e-05
-2.0508e-05
-1.7578e-05
-2.0508e-05
-2.3437e-05
-2.0508e-05
-2.3437e-05
-2.3437e-05
-2.3437e-05
-2.6367e-05
-2.9297e-05
-2.9297e-05
-2.6367e-05
-2.9297e-05
-2.6367e-05
-2.6367e-05
-2.3437e-05
-2.3437e-05
-2.0508e-05
-1.7578e-05
-1.4648e-05
-1.1719e-05
-8.7891e-06
-5.8594e-06
2.9297e-06
8.7891e-06
8.7891e-06
1.1719e-05
1.4648e-05
1.7578e-05
2.3437e-05
2.3437e-05
2.0508e-05
2.0508e-05
2.0508e-05
2.3437e-05
2.6367e-05
2.6367e-05
2.9297e-05
3.2227e-05
3.8086e-05
4.1016e-05
4.1016e-05
4.3945e-05
4.3945e-05
4.1016e-05
3.8086e-05
3.2227e-05
2.6367e-05
2.6367e-05
2.3437e-05
2.0508e-05
1.7578e-05
1.4648e-05
1.1719e-05
8.7891e-06
2.9297e-06
2.9297e-06
0
0
0
-2.9297e-06
-5.8594e-06
-1.1719e-05
-1.1719e-05
-1.1719e-05
-1.4648e-05
-1.1719e-05
-1.1719e-05
-1.1719e-05
-1.1719e-05
-1.1719e-05
-1.1719e-05
-1.1719e-05
-5.8594e-06
-2.9297e-06
-2.9297e-06
-2.9297e-06
-2.9297e-06
-2.9297e-06
-5.8594e-06
-5.8594e-06
-8.7891e-06
-8.7891e-06
-5.8594e-06
-5.8594e-06
-5.8594e-06
-5.8594e-06
-2.9297e-06
-5.8594e-06
-5.8594e-06
-2.9297e-06
0
0
2.9297e-06
2.9297e-06
2.9297e-06
0
0
-2.9297e-06
-5.8594e-06
-8.7891e-06
-1.1719e-05
-1.1719e-05
-8.7891e-06
-1.1719e-05
-8.7891e-06
-8.7891e-06
-8.7891e-06
-1.1719e-05
-1.1719e-05
-1.1719e-05
-1.1719e-05
-1.1719e-05
-1.1719e-05
-1.4648e-05
-1.4648e-05
-1.1719e-05
-8.7891e-06
-5.8594e-06
-5.8594e-06
-8.7891e-06
-5.8594e-06
-2.9297e-06
5.8594e-06
1.4648e-05
2.6367e-05
4.1016e-05
5.2734e-05
6.4453e-05
7.3242e-05
8.2031e-05
9.082e-05
9.668e-05
0.00010254
0.00011426
0.00012012
0.00013184
0.00014355
0.00016113
0.00017285
0.00018164
0.0001875
0.0001875
0.00018457
0.00017578
0.00017285
0.00016406
0.00014648
0.00012598
9.9609e-05
7.0312e-05
3.8086e-05
2.9297e-06
-3.5156e-05
-7.6172e-05
-0.00011719
-0.0001582
-0.00019629
-0.00023145
-0.00026074
-0.00029004
-0.00031641
-0.00033984
-0.00036621
-0.00037793
-0.00038379
-0.00038672
-0.00037793
-0.00036621
-0.00035449
-0.00033984
-0.0003252
-0.00030469
-0.00028711
-0.0002666
-0.00024609
-0.00022852
-0.00021094
-0.00019629
-0.00018164
-0.00016406
-0.00014648
-0.00013184
-0.00011719
-0.00010547
-9.082e-05
-7.3242e-05
-6.1523e-05
-4.9805e-05
-4.3945e-05
-3.5156e-05
-2.3437e-05
-1.4648e-05
-2.9297e-06
2.9297e-06
1.1719e-05
2.0508e-05
2.3437e-05
2.6367e-05
3.2227e-05
3.8086e-05
4.3945e-05
4.3945e-05
4.9805e-05
5.2734e-05
5.5664e-05
5.5664e-05
5.8594e-05
5.8594e-05
5.8594e-05
6.1523e-05
6.4453e-05
6.7383e-05
6.7383e-05
6.7383e-05
6.7383e-05
6.7383e-05
6.4453e-05
6.1523e-05
5.8594e-05
5.2734e-05
4.6875e-05
4.3945e-05
4.6875e-05
4.9805e-05
4.9805e-05
4.9805e-05
4.6875e-05
4.6875e-05
4.9805e-05
4.6875e-05
4.3945e-05
4.1016e-05
3.5156e-05
3.5156e-05
3.2227e-05
3.2227e-05
2.9297e-05
2.9297e-05
2.6367e-05
2.3437e-05
2.3437e-05
2.9297e-05
3.2227e-05
3.5156e-05
3.8086e-05
4.1016e-05
4.1016e-05
4.3945e-05
4.6875e-05
4.9805e-05
4.9805e-05
4.6875e-05
4.3945e-05
4.3945e-05
4.3945e-05
4.6875e-05
4.6875e-05
4.6875e-05
4.9805e-05
5.2734e-05
5.5664e-05
5.5664e-05
5.5664e-05
5.8594e-05
5.8594e-05
5.8594e-05
5.8594e-05
6.1523e-05
6.1523e-05
6.1523e-05
6.1523e-05
5.8594e-05
6.4453e-05
6.1523e-05
6.4453e-05
6.4453e-05
6.4453e-05
6.7383e-05
6.4453e-05
6.1523e-05
5.8594e-05
5.5664e-05
5.5664e-05
5.8594e-05
6.1523e-05
6.4453e-05
6.4453e-05
6.1523e-05
6.4453e-05
6.4453e-05
6.7383e-05
7.0312e-05
7.3242e-05
7.6172e-05
8.2031e-05
7.9102e-05
8.2031e-05
8.2031e-05
8.4961e-05
8.7891e-05
8.7891e-05
8.7891e-05
8.7891e-05
8.7891e-05
8.7891e-05
8.7891e-05
9.082e-05
9.375e-05
9.668e-05
0.00010254
0.00010254
0.0001084
0.00011133
0.00011426
0.00011719
0.00012012
0.00012305
0.00012305
0.00012012
0.00011719
0.00011426
0.00011426
0.00011426
0.00011426
0.00012012
0.00012598
0.00013184
0.00013477
0.00014062
0.00014062
0.00014062
0.00014062
0.00014062
0.00014062
0.0001377
0.0001377
0.00013477
0.00013477
0.00013477
0.00013477
0.00013477
0.00013477
0.00014062
0.00014062
0.00014062
0.00014355
0.00014062
0.0001377
0.0001377
0.0001377
0.0001377
0.00013184
0.00012891
0.00012598
0.00012012
0.00011426
0.00011133
0.00010547
0.00010547
0.00010254
0.00010254
9.668e-05
9.375e-05
9.082e-05
8.4961e-05
8.2031e-05
7.3242e-05
7.0312e-05
6.1523e-05
5.5664e-05
4.9805e-05
4.3945e-05
3.8086e-05
3.2227e-05
2.3437e-05
2.0508e-05
1.4648e-05
8.7891e-06
2.9297e-06
-2.9297e-06
-8.7891e-06
-1.4648e-05
-2.0508e-05
-2.6367e-05
-3.5156e-05
-3.8086e-05
-4.1016e-05
-4.9805e-05
-5.5664e-05
-5.8594e-05
-7.0312e-05
-7.3242e-05
-7.9102e-05
-8.4961e-05
-8.7891e-05
-9.375e-05
-9.668e-05
-9.668e-05
-9.9609e-05
-0.00010547
-0.00011426
-0.00011719
-0.00011719
-0.00012012
-0.00012598
-0.00013184
-0.00013477
-0.0001377
-0.0001377
-0.00014062
-0.00014062
-0.00014355
-0.00014062
-0.00014062
-0.00014062
-0.0001377
-0.00014062
-0.00014355
-0.00014648
-0.00014648
-0.00014648
-0.00015234
-0.00015527
-0.0001582
-0.00015527
-0.00015234
-0.00015234
-0.00015234
-0.00014941
-0.00014648
-0.00014355
-0.00014062
-0.00014062
-0.0001377
-0.00013477
-0.00013184
-0.00012598
-0.00012891
-0.00012891
-0.00012891
-0.00013184
-0.00013184
-0.00012891
-0.00012598
-0.00012012
-0.00011719
-0.00011719
-0.00011719
-0.00011426
-0.00011133
-0.0001084
-0.00010547
-0.00010547
-9.9609e-05
-9.668e-05
-9.375e-05
-9.082e-05
-9.082e-05
-9.082e-05
-9.082e-05
-9.082e-05
-9.082e-05
-9.082e-05
-8.4961e-05
-8.4961e-05
-8.4961e-05
-8.4961e-05
-8.4961e-05
-8.2031e-05
-7.9102e-05
-7.9102e-05
-7.6172e-05
-7.6172e-05
-7.6172e-05
-7.6172e-05
-7.9102e-05
-7.9102e-05
-7.9102e-05
-7.9102e-05
-7.9102e-05
-7.9102e-05
-7.9102e-05
-7.9102e-05
-7.6172e-05
-7.9102e-05
-7.9102e-05
-7.9102e-05
-7.9102e-05
-7.6172e-05
-7.9102e-05
-8.2031e-05
-7.9102e-05
-7.9102e-05
-7.6172e-05
-7.3242e-05
-7.0312e-05
-6.7383e-05
-6.7383e-05
-6.7383e-05
-7.0312e-05
-7.3242e-05
-7.3242e-05
-7.6172e-05
-8.2031e-05
-8.4961e-05
-8.4961e-05
-8.7891e-05
-8.4961e-05
-8.7891e-05
-8.4961e-05
-8.4961e-05
-8.2031e-05
-7.6172e-05
-7.3242e-05
-7.3242e-05
-7.3242e-05
-7.3242e-05
-7.3242e-05
-7.3242e-05
-7.3242e-05
-7.0312e-05
-7.0312e-05
-7.0312e-05
-7.0312e-05
-6.7383e-05
-6.7383e-05
-6.4453e-05
-6.1523e-05
-6.4453e-05
-6.1523e-05
-6.1523e-05
-6.1523e-05
-5.8594e-05
-5.8594e-05
-5.5664e-05
-5.2734e-05
-4.9805e-05
-4.6875e-05
-4.6875e-05
-5.2734e-05
-5.2734e-05
-5.2734e-05
-4.9805e-05
-4.9805e-05
-4.9805e-05
-5.2734e-05
-4.6875e-05
-4.6875e-05
-4.6875e-05
-4.6875e-05
-4.6875e-05
-4.6875e-05
-4.6875e-05
-4.3945e-05
-4.3945e-05
-4.3945e-05
-4.3945e-05
-4.1016e-05
-3.8086e-05
-3.8086e-05
-3.8086e-05
-3.5156e-05
-3.2227e-05
-2.9297e-05
-2.6367e-05
-2.6367e-05
-2.6367e-05
-2.3437e-05
-2.3437e-05
-2.3437e-05
-2.3437e-05
-2.3437e-05
-2.3437e-05
-2.3437e-05
-2.0508e-05
-2.3437e-05
-2.3437e-05
-2.0508e-05
-2.0508e-05
-1.7578e-05
-1.7578e-05
-1.7578e-05
-1.4648e-05
-1.1719e-05
-1.1719e-05
-8.7891e-06
-8.7891e-06
-1.1719e-05
-1.4648e-05
-1.4648e-05
-1.4648e-05
-1.1719e-05
-5.8594e-06
-2.9297e-06
-5.8594e-06
-2.9297e-06
-2.9297e-06
-2.9297e-06
-2.9297e-06
-2.9297e-06
-2.9297e-06
-2.9297e-06
-2.9297e-06
-2.9297e-06
-2.9297e-06
-2.9297e-06
-5.8594e-06
-2.9297e-06
-5.8594e-06
-5.8594e-06
-5.8594e-06
-2.9297e-06
0
0
0
2.9297e-06
5.8594e-06
5.8594e-06
5.8594e-06
5.8594e-06
8.7891e-06
5.8594e-06
2.9297e-06
2.9297e-06
8.7891e-06
8.7891e-06
8.7891e-06
1.1719e-05
1.1719e-05
1.1719e-05
1.1719e-05
1.1719e-05
1.4648e-05
1.4648e-05
1.4648e-05
1.4648e-05
1.7578e-05
1.7578e-05
1.4648e-05
1.1719e-05
1.1719e-05
8.7891e-06
8.7891e-06
5.8594e-06
2.9297e-06
5.8594e-06
8.7891e-06
8.7891e-06
8.7891e-06
8.7891e-06
8.7891e-06
2.9297e-06
0
0
0
0
2.9297e-06
0
0
0
0
0
2.9297e-06
2.9297e-06
5.8594e-06
5.8594e-06
2.9297e-06
2.9297e-06
-2.9297e-06
-5.8594e-06
-5.8594e-06
-1.1719e-05
-1.1719e-05
-1.7578e-05
-2.0508e-05
-2.3437e-05
-2.3437e-05
-2.3437e-05
-2.6367e-05
-2.9297e-05
-2.9297e-05
-3.2227e-05
-3.2227e-05
-3.2227e-05
-2.9297e-05
-2.6367e-05
-2.9297e-05
-2.9297e-05
-3.2227e-05
-3.8086e-05
-4.1016e-05
-4.3945e-05
-4.6875e-05
-4.6875e-05
-4.9805e-05
-4.6875e-05
-4.6875e-05
-4.6875e-05
-4.3945e-05
-3.8086e-05
-3.8086e-05
-3.8086e-05
-3.5156e-05
-3.2227e-05
-3.2227e-05
-3.2227e-05
-3.2227e-05
-2.9297e-05
-2.6367e-05
-2.3437e-05
-2.0508e-05
-1.7578e-05
-1.7578e-05
-2.0508e-05
-2.0508e-05
-1.7578e-05
-2.0508e-05
-2.0508e-05
-2.3437e-05
-2.0508e-05
-1.7578e-05
-1.4648e-05
-1.4648e-05
-1.4648e-05
-8.7891e-06
-5.8594e-06
-2.9297e-06
2.9297e-06
8.7891e-06
1.1719e-05
1.7578e-05
2.0508e-05
2.3437e-05
2.9297e-05
3.2227e-05
3.5156e-05
3.8086e-05
4.3945e-05
4.6875e-05
4.9805e-05
5.2734e-05
5.2734e-05
5.5664e-05
4.9805e-05
4.6875e-05
4.6875e-05
4.3945e-05
4.3945e-05
4.1016e-05
4.3945e-05
4.1016e-05
4.1016e-05
4.3945e-05
4.3945e-05
4.3945e-05
4.1016e-05
3.8086e-05
3.5156e-05
3.5156e-05
3.2227e-05
2.9297e-05
2.6367e-05
2.6367e-05
2.3437e-05
2.3437e-05
2.3437e-05
2.0508e-05
1.7578e-05
1.7578e-05
1.1719e-05
1.1719e-05
8.7891e-06
2.9297e-06
-2.9297e-06
-8.7891e-06
-8.7891e-06
-1.1719e-05
-1.1719e-05
-1.7578e-05
-2.0508e-05
-2.3437e-05
-2.3437e-05
-2.3437e-05
-2.3437e-05
-2.3437e-05
-2.6367e-05
-2.9297e-05
-2.6367e-05
-2.3437e-05
-2.0508e-05
-1.7578e-05
-1.4648e-05
-1.4648e-05
-1.7578e-05
-1.7578e-05
-1.7578e-05
-2.0508e-05
-2.3437e-05
-2.6367e-05
-2.6367e-05
-2.3437e-05
-2.3437e-05
-2.6367e-05
-2.6367e-05
-2.9297e-05
-2.9297e-05
-3.2227e-05
-3.5156e-05
-3.8086e-05
-3.8086e-05
-3.8086e-05
-3.8086e-05
-3.8086e-05
-3.8086e-05
-3.8086e-05
-3.8086e-05
-3.5156e-05
-3.5156e-05
-3.5156e-05
-2.9297e-05
-2.9297e-05
-2.9297e-05
-2.9297e-05
-2.3437e-05
-2.0508e-05
-1.7578e-05
-1.4648e-05
-1.1719e-05
-8.7891e-06
-2.9297e-06
0
0
2.9297e-06
5.8594e-06
1.1719e-05
1.7578e-05
2.6367e-05
4.1016e-05
5.2734e-05
6.7383e-05
7.9102e-05
8.7891e-05
9.668e-05
0.00011133
0.00012598
0.00014062
0.00015527
0.00016992
0.00018164
0.00019043
0.00020215
0.00021387
0.00022266
0.00023145
0.00023437
0.0002373
0.00023145
0.00022266
0.00020508
0.0001875
0.00016699
0.0001377
0.00010547
7.0312e-05
3.2227e-05
-2.9297e-06
-4.3945e-05
-8.4961e-05
-0.00012598
-0.00016113
-0.0001875
-0.0002168
-0.00024609
-0.00027246
-0.00029883
-0.00031934
-0.00033105
-0.00033398
-0.00033398
-0.0003252
-0.00031641
-0.00030176
-0.00028418
-0.00027246
-0.00025781
-0.00024316
-0.00022852
-0.00021094
-0.00019922
-0.0001875
-0.00017578
-0.00016699
-0.00015527
-0.00014355
-0.00013184
-0.00012012
-0.00010547
-9.082e-05
-7.6172e-05
-6.4453e-05
-5.2734e-05
-4.3945e-05
-3.5156e-05
-2.3437e-05
-1.4648e-05
-5.8594e-06
0
2.9297e-06
8.7891e-06
1.1719e-05
1.4648e-05
1.7578e-05
1.7578e-05
2.0508e-05
2.0508e-05
2.3437e-05
2.6367e-05
2.9297e-05
3.2227e-05
3.2227e-05
3.2227e-05
2.9297e-05
2.9297e-05
3.2227e-05
3.2227e-05
3.2227e-05
2.9297e-05
2.6367e-05
2.3437e-05
2.0508e-05
2.0508e-05
2.0508e-05
2.0508e-05
2.0508e-05
2.0508e-05
2.6367e-05
2.6367e-05
2.6367e-05
2.3437e-05
2.3437e-05
2.6367e-05
2.3437e-05
2.3437e-05
2.6367e-05
2.6367e-05
2.9297e-05
2.9297e-05
3.2227e-05
3.2227e-05
3.2227e-05
3.5156e-05
3.5156e-05
3.5156e-05
3.8086e-05
4.3945e-05
4.9805e-05
5.2734e-05
5.5664e-05
6.1523e-05
6.7383e-05
7.0312e-05
7.3242e-05
7.6172e-05
7.6172e-05
7.9102e-05
8.2031e-05
7.9102e-05
8.2031e-05
8.2031e-05
8.2031e-05
8.2031e-05
8.4961e-05
8.7891e-05
8.7891e-05
8.7891e-05
9.082e-05
9.375e-05
0.00010254
0.00010547
0.0001084
0.00011133
0.00011426
0.00011426
0.00011426
0.00011133
0.00011426
0.00011426
0.00011426
0.00011426
0.00011133
0.00011133
0.00011133
0.0001084
0.00010547
0.00010547
0.0001084
0.00010547
0.00010254
0.00010254
0.00010254
9.668e-05
9.375e-05
9.082e-05
8.7891e-05
8.7891e-05
8.7891e-05
9.082e-05
9.082e-05
9.375e-05
9.668e-05
9.668e-05
9.668e-05
9.668e-05
9.668e-05
9.375e-05
9.375e-05
9.375e-05
9.375e-05
9.082e-05
9.082e-05
9.082e-05
9.082e-05
9.082e-05
8.7891e-05
9.082e-05
9.082e-05
9.082e-05
9.082e-05
9.082e-05
9.082e-05
8.7891e-05
8.7891e-05
8.7891e-05
9.082e-05
8.7891e-05
8.7891e-05
8.4961e-05
8.2031e-05
8.2031e-05
8.2031e-05
8.2031e-05
8.4961e-05
8.4961e-05
8.4961e-05
8.4961e-05
8.4961e-05
8.2031e-05
8.2031e-05
8.2031e-05
8.2031e-05
8.4961e-05
8.4961e-05
8.4961e-05
7.9102e-05
7.9102e-05
7.3242e-05
7.0312e-05
7.0312e-05
7.0312e-05
6.7383e-05
6.7383e-05
6.4453e-05
6.4453e-05
6.7383e-05
7.0312e-05
7.3242e-05
7.3242e-05
7.3242e-05
7.3242e-05
7.6172e-05
7.3242e-05
7.0312e-05
6.7383e-05
6.1523e-05
5.8594e-05
5.8594e-05
5.2734e-05
4.9805e-05
4.6875e-05
4.6875e-05
4.3945e-05
4.1016e-05
4.1016e-05
3.8086e-05
3.5156e-05
2.9297e-05
2.3437e-05
2.0508e-05
1.4648e-05
8.7891e-06
8.7891e-06
2.9297e-06
-2.9297e-06
-5.8594e-06
-1.1719e-05
-1.4648e-05
-1.4648e-05
-2.0508e-05
-2.6367e-05
-3.5156e-05
-4.1016e-05
-4.6875e-05
-5.2734e-05
-5.8594e-05
-6.1523e-05
-6.7383e-05
-7.3242e-05
-7.3242e-05
-7.6172e-05
-8.2031e-05
-8.4961e-05
-8.4961e-05
-8.7891e-05
-9.375e-05
-9.668e-05
-9.9609e-05
-0.00010254
-0.00010547
-0.00010547
-0.00010547
-0.0001084
-0.00011133
-0.00011426
-0.00011719
-0.00011426
-0.00011133
-0.00011133
-0.0001084
-0.0001084
-0.00010547
-0.0001084
-0.0001084
-0.00010547
-0.0001084
-0.0001084
-0.00010547
-0.00010547
-9.9609e-05
-9.9609e-05
-9.9609e-05
-9.668e-05
-9.668e-05
-9.668e-05
-9.668e-05
-9.668e-05
-9.668e-05
-9.668e-05
-9.375e-05
-9.082e-05
-9.082e-05
-9.082e-05
-9.082e-05
-9.082e-05
-9.082e-05
-9.082e-05
-9.082e-05
-9.375e-05
-9.082e-05
-8.7891e-05
-8.7891e-05
-8.4961e-05
-8.2031e-05
-7.9102e-05
-7.6172e-05
-7.6172e-05
-7.9102e-05
-7.9102e-05
-7.9102e-05
-8.2031e-05
-8.4961e-05
-9.082e-05
-9.375e-05
-9.375e-05
-9.375e-05
-9.375e-05
-9.375e-05
-9.082e-05
-9.082e-05
-9.082e-05
-9.082e-05
-9.082e-05
-9.082e-05
-9.375e-05
-9.668e-05
-9.668e-05
-9.668e-05
-9.9609e-05
-9.9609e-05
-9.668e-05
-9.9609e-05
-9.9609e-05
-0.00010254
-0.00010254
-0.00010547
-0.00010547
-0.00010547
-0.0001084
-0.00011133
-0.00011133
-0.00011426
-0.00011426
-0.00011719
-0.00011719
-0.00012012
-0.00012305
-0.00012012
-0.00012012
-0.00012012
-0.00012012
-0.00011719
-0.00011719
-0.00011426
-0.00011133
-0.0001084
-0.0001084
-0.00011426
-0.00011719
-0.00011719
-0.00011719
-0.00011719
-0.00011719
-0.00011719
-0.00011426
-0.00011426
-0.00011719
-0.00011719
-0.00011719
-0.00011426
-0.00011133
-0.00010547
-0.00010547
-0.00010254
-0.00010254
-0.00010254
-0.00010254
-9.9609e-05
-9.668e-05
-9.375e-05
-8.7891e-05
-8.4961e-05
-7.9102e-05
-7.3242e-05
-7.3242e-05
-7.0312e-05
-6.7383e-05
-6.4453e-05
-6.1523e-05
-5.5664e-05
-4.9805e-05
-4.6875e-05
-4.3945e-05
-4.1016e-05
-3.8086e-05
-3.5156e-05
-2.9297e-05
-2.6367e-05
-2.3437e-05
-2.6367e-05
-2.6367e-05
-2.3437e-05
-2.0508e-05
-1.4648e-05
-1.1719e-05
-8.7891e-06
-8.7891e-06
-5.8594e-06
0
2.9297e-06
8.7891e-06
1.1719e-05
1.1719e-05
1.1719e-05
1.4648e-05
1.4648e-05
1.7578e-05
1.7578e-05
1.7578e-05
1.7578e-05
1.7578e-05
1.7578e-05
1.7578e-05
1.7578e-05
1.7578e-05
1.4648e-05
8.7891e-06
8.7891e-06
8.7891e-06
8.7891e-06
8.7891e-06
8.7891e-06
8.7891e-06
5.8594e-06
5.8594e-06
2.9297e-06
2.9297e-06
0
0
-2.9297e-06
-2.9297e-06
-5.8594e-06
-5.8594e-06
-5.8594e-06
-8.7891e-06
-8.7891e-06
-8.7891e-06
-8.7891e-06
-1.1719e-05
-8.7891e-06
-5.8594e-06
-5.8594e-06
-8.7891e-06
-1.1719e-05
-1.4648e-05
-1.4648e-05
-1.4648e-05
-1.7578e-05
-1.4648e-05
-1.4648e-05
-2.0508e-05
-2.0508e-05
-2.3437e-05
-2.3437e-05
-2.3437e-05
-2.3437e-05
-2.3437e-05
-2.6367e-05
-2.9297e-05
-3.5156e-05
-3.8086e-05
-3.8086e-05
-3.8086e-05
-3.8086e-05
-3.8086e-05
-3.8086e-05
-3.8086e-05
-4.1016e-05
-4.1016e-05
-3.8086e-05
-4.1016e-05
-4.1016e-05
-3.8086e-05
-3.5156e-05
-2.9297e-05
-2.9297e-05
-2.9297e-05
-2.3437e-05
-2.0508e-05
-1.4648e-05
-1.1719e-05
-1.1719e-05
-1.1719e-05
-1.4648e-05
-1.7578e-05
-1.4648e-05
-1.4648e-05
-1.1719e-05
-8.7891e-06
-8.7891e-06
-8.7891e-06
-5.8594e-06
-5.8594e-06
-2.9297e-06
0
2.9297e-06
5.8594e-06
8.7891e-06
8.7891e-06
8.7891e-06
1.1719e-05
1.7578e-05
2.0508e-05
2.3437e-05
2.3437e-05
2.0508e-05
1.7578e-05
2.0508e-05
1.7578e-05
2.0508e-05
2.0508e-05
2.6367e-05
2.9297e-05
3.2227e-05
3.2227e-05
3.2227e-05
2.9297e-05
2.9297e-05
2.6367e-05
2.6367e-05
2.0508e-05
1.1719e-05
8.7891e-06
5.8594e-06
5.8594e-06
2.9297e-06
2.9297e-06
0
0
-2.9297e-06
-5.8594e-06
-5.8594e-06
-5.8594e-06
-8.7891e-06
-1.4648e-05
-1.7578e-05
-2.3437e-05
-2.3437e-05
-2.6367e-05
-2.6367e-05
-2.9297e-05
-2.6367e-05
-2.6367e-05
-2.6367e-05
-2.3437e-05
-2.3437e-05
-2.3437e-05
-2.6367e-05
-3.2227e-05
-3.5156e-05
-3.5156e-05
-3.8086e-05
-4.1016e-05
-4.3945e-05
-4.3945e-05
-4.6875e-05
-4.3945e-05
-4.3945e-05
-4.1016e-05
-4.3945e-05
-4.3945e-05
-4.6875e-05
-4.6875e-05
-4.6875e-05
-4.3945e-05
-4.1016e-05
-3.8086e-05
-3.5156e-05
-3.2227e-05
-2.9297e-05
-3.2227e-05
-3.2227e-05
-2.9297e-05
-2.6367e-05
-2.6367e-05
-2.3437e-05
-2.0508e-05
-1.4648e-05
-1.4648e-05
-1.4648e-05
-1.4648e-05
-1.1719e-05
-5.8594e-06
-2.9297e-06
0
2.9297e-06
1.1719e-05
2.0508e-05
2.9297e-05
3.2227e-05
3.8086e-05
3.8086e-05
3.8086e-05
3.8086e-05
3.5156e-05
3.5156e-05
2.9297e-05
2.6367e-05
2.6367e-05
2.6367e-05
2.3437e-05
2.0508e-05
2.0508e-05
2.3437e-05
2.6367e-05
2.6367e-05
3.2227e-05
3.5156e-05
3.5156e-05
3.5156e-05
3.5156e-05
3.5156e-05
3.5156e-05
2.9297e-05
2.6367e-05
2.3437e-05
2.0508e-05
1.4648e-05
1.1719e-05
8.7891e-06
5.8594e-06
2.9297e-06
-2.9297e-06
-5.8594e-06
-1.1719e-05
-1.4648e-05
-2.0508e-05
-1.7578e-05
-1.7578e-05
-1.7578e-05
-2.0508e-05
-2.3437e-05
-2.6367e-05
-2.9297e-05
-2.9297e-05
-2.9297e-05
-3.2227e-05
-3.2227e-05
-3.2227e-05
-3.5156e-05
-3.2227e-05
-3.2227e-05
-3.2227e-05
-3.2227e-05
-3.2227e-05
-3.5156e-05
-3.5156e-05
-3.8086e-05
-3.8086e-05
-4.3945e-05
-4.3945e-05
-4.1016e-05
-4.1016e-05
-4.1016e-05
-4.1016e-05
-4.1016e-05
-4.1016e-05
-4.1016e-05
-3.8086e-05
-3.8086e-05
-3.5156e-05
-3.5156e-05
-3.2227e-05
-2.9297e-05
-2.9297e-05
-3.2227e-05
-3.2227e-05
-3.5156e-05
-3.5156e-05
-3.8086e-05
-4.1016e-05
-4.3945e-05
-4.3945e-05
-4.3945e-05
-4.1016e-05
-4.1016e-05
-3.8086e-05
-3.2227e-05
-2.9297e-05
-2.6367e-05
-2.6367e-05
-2.3437e-05
-1.7578e-05
-1.1719e-05
-5.8594e-06
2.9297e-06
1.4648e-05
2.6367e-05
4.1016e-05
5.8594e-05
7.0312e-05
8.4961e-05
9.9609e-05
0.00011426
0.00013184
0.00015234
0.00017285
0.0001875
0.00019922
0.00021387
0.00022559
0.0002373
0.00024316
0.00025488
0.00025781
0.00025781
0.00025488
0.00025195
0.00024023
0.00022266
0.00020215
0.00017578
0.00014355
0.00010547
6.1523e-05
1.7578e-05
-2.6367e-05
-7.0312e-05
-0.00011426
-0.0001582
-0.00019922
-0.00024316
-0.00028125
-0.00031055
-0.00033984
-0.00036328
-0.000375
-0.000375
-0.000375
-0.00036621
-0.00035742
-0.00034277
-0.00032812
-0.00031055
-0.00029297
-0.00027539
-0.00026074
-0.00024609
-0.00023145
-0.0002168
-0.00020215
-0.0001875
-0.00017285
-0.00015527
-0.0001377
-0.00012012
-0.00010254
-8.7891e-05
-7.6172e-05
-6.7383e-05
-5.5664e-05
-4.9805e-05
-4.3945e-05
-3.8086e-05
-3.2227e-05
-2.9297e-05
-2.9297e-05
-2.3437e-05
-1.7578e-05
-1.1719e-05
-5.8594e-06
0
0
0
0
0
2.9297e-06
5.8594e-06
5.8594e-06
2.9297e-06
2.9297e-06
2.9297e-06
2.9297e-06
2.9297e-06
2.9297e-06
2.9297e-06
5.8594e-06
5.8594e-06
8.7891e-06
8.7891e-06
1.1719e-05
1.4648e-05
1.4648e-05
1.7578e-05
1.7578e-05
1.7578e-05
2.0508e-05
2.3437e-05
2.3437e-05
2.3437e-05
2.9297e-05
3.5156e-05
3.5156e-05
3.8086e-05
4.1016e-05
4.1016e-05
4.3945e-05
4.6875e-05
4.9805e-05
5.2734e-05
4.9805e-05
5.2734e-05
5.5664e-05
5.5664e-05
5.8594e-05
6.1523e-05
6.1523e-05
6.4453e-05
6.4453e-05
6.4453e-05
6.7383e-05
6.7383e-05
6.7383e-05
6.7383e-05
7.0312e-05
7.0312e-05
7.3242e-05
7.9102e-05
8.2031e-05
8.7891e-05
9.082e-05
9.375e-05
9.668e-05
9.668e-05
9.375e-05
9.375e-05
9.668e-05
9.668e-05
9.668e-05
9.9609e-05
9.9609e-05
9.9609e-05
9.9609e-05
9.9609e-05
9.9609e-05
9.9609e-05
9.9609e-05
0.00010254
9.9609e-05
9.9609e-05
9.668e-05
9.375e-05
9.375e-05
9.375e-05
9.668e-05
9.668e-05
9.668e-05
9.9609e-05
0.00010254
9.9609e-05
9.668e-05
9.375e-05
9.082e-05
8.7891e-05
8.7891e-05
8.4961e-05
8.2031e-05
8.2031e-05
8.2031e-05
8.2031e-05
8.4961e-05
8.7891e-05
8.7891e-05
8.7891e-05
9.082e-05
9.082e-05
8.7891e-05
8.4961e-05
8.2031e-05
8.4961e-05
8.4961e-05
8.4961e-05
8.4961e-05
8.4961e-05
8.7891e-05
8.7891e-05
9.082e-05
9.082e-05
9.082e-05
9.082e-05
9.375e-05
9.375e-05
9.668e-05
9.668e-05
9.375e-05
9.082e-05
8.7891e-05
8.7891e-05
8.7891e-05
8.7891e-05
8.7891e-05
9.082e-05
9.375e-05
9.082e-05
8.7891e-05
8.2031e-05
8.2031e-05
7.9102e-05
8.2031e-05
8.2031e-05
8.4961e-05
8.7891e-05
8.7891e-05
8.7891e-05
9.082e-05
9.082e-05
9.082e-05
9.082e-05
8.7891e-05
8.7891e-05
8.7891e-05
9.082e-05
9.082e-05
9.082e-05
8.7891e-05
8.7891e-05
8.4961e-05
8.4961e-05
8.2031e-05
8.2031e-05
8.2031e-05
8.4961e-05
8.4961e-05
8.4961e-05
8.7891e-05
8.4961e-05
7.9102e-05
7.3242e-05
6.7383e-05
5.8594e-05
5.2734e-05
4.6875e-05
4.1016e-05
3.5156e-05
2.9297e-05
2.3437e-05
1.7578e-05
1.4648e-05
1.1719e-05
8.7891e-06
5.8594e-06
2.9297e-06
0
-2.9297e-06
-1.1719e-05
-1.7578e-05
-2.3437e-05
-2.9297e-05
-3.8086e-05
-4.6875e-05
-5.5664e-05
-5.8594e-05
-6.1523e-05
-6.7383e-05
-7.0312e-05
-7.3242e-05
-7.6172e-05
-7.9102e-05
-8.2031e-05
-8.4961e-05
-8.7891e-05
-9.082e-05
-9.375e-05
-9.668e-05
-9.9609e-05
-0.00010547
-0.00010547
-0.00011133
-0.00011133
-0.00011426
-0.00011719
-0.00011719
-0.00011719
-0.00012305
-0.00012305
-0.00012012
-0.00011719
-0.00011719
-0.00011719
-0.00011719
-0.00011719
-0.00011426
-0.00011426
-0.00011426
-0.00011426
-0.0001084
-0.0001084
-0.00010547
-0.00010254
-9.9609e-05
-9.9609e-05
-9.668e-05
-9.668e-05
-9.375e-05
-9.375e-05
-9.375e-05
-9.668e-05
-9.668e-05
-9.9609e-05
-9.668e-05
-9.668e-05
-9.082e-05
-9.082e-05
-8.4961e-05
-8.4961e-05
-8.2031e-05
-8.2031e-05
-7.9102e-05
-7.9102e-05
-7.6172e-05
-7.9102e-05
-7.6172e-05
-7.3242e-05
-7.3242e-05
-6.7383e-05
-6.7383e-05
-6.4453e-05
-6.4453e-05
-6.4453e-05
-6.4453e-05
-6.7383e-05
-6.7383e-05
-7.0312e-05
-7.0312e-05
-7.0312e-05
-7.0312e-05
-6.7383e-05
-6.7383e-05
-6.4453e-05
-5.8594e-05
-5.5664e-05
-5.2734e-05
-4.9805e-05
-4.9805e-05
-4.6875e-05
-4.6875e-05
-4.9805e-05
-5.2734e-05
-5.2734e-05
-5.2734e-05
-5.2734e-05
-5.2734e-05
-5.5664e-05
-5.2734e-05
-5.2734e-05
-5.2734e-05
-5.2734e-05
-5.2734e-05
-5.2734e-05
-4.9805e-05
-4.9805e-05
-5.2734e-05
-5.2734e-05
-5.8594e-05
-5.8594e-05
-6.1523e-05
-6.1523e-05
-6.4453e-05
-6.7383e-05
-7.0312e-05
-7.0312e-05
-7.0312e-05
-7.0312e-05
-7.3242e-05
-7.3242e-05
-7.9102e-05
-7.9102e-05
-7.9102e-05
-8.2031e-05
-8.2031e-05
-8.2031e-05
-8.4961e-05
-8.4961e-05
-8.4961e-05
-8.4961e-05
-8.4961e-05
-8.2031e-05
-8.4961e-05
-8.4961e-05
-8.4961e-05
-8.2031e-05
-8.2031e-05
-8.4961e-05
-8.2031e-05
-8.2031e-05
-7.6172e-05
-7.3242e-05
-7.0312e-05
-6.4453e-05
-6.1523e-05
-5.8594e-05
-5.2734e-05
-4.9805e-05
-4.6875e-05
-4.3945e-05
-4.3945e-05
-4.3945e-05
-4.6875e-05
-4.3945e-05
-3.8086e-05
-3.8086e-05
-3.8086e-05
-3.5156e-05
-3.2227e-05
-2.9297e-05
-2.9297e-05
-2.6367e-05
-2.3437e-05
-2.0508e-05
-1.4648e-05
-1.1719e-05
-8.7891e-06
-2.9297e-06
0
2.9297e-06
5.8594e-06
8.7891e-06
8.7891e-06
8.7891e-06
1.1719e-05
1.4648e-05
1.7578e-05
1.7578e-05
2.0508e-05
1.7578e-05
1.4648e-05
1.4648e-05
1.7578e-05
2.0508e-05
2.3437e-05
2.3437e-05
2.6367e-05
2.9297e-05
3.2227e-05
3.2227e-05
2.9297e-05
2.6367e-05
2.6367e-05
2.6367e-05
2.0508e-05
2.0508e-05
1.7578e-05
1.7578e-05
1.7578e-05
1.4648e-05
1.4648e-05
1.4648e-05
1.4648e-05
1.1719e-05
1.1719e-05
8.7891e-06
8.7891e-06
8.7891e-06
1.1719e-05
1.1719e-05
1.1719e-05
1.4648e-05
1.4648e-05
1.4648e-05
1.1719e-05
8.7891e-06
5.8594e-06
5.8594e-06
2.9297e-06
0
-2.9297e-06
-2.9297e-06
0
0
0
-2.9297e-06
-5.8594e-06
-5.8594e-06
-8.7891e-06
-1.1719e-05
-1.1719e-05
-1.1719e-05
-1.1719e-05
-1.1719e-05
-1.4648e-05
-1.4648e-05
-1.1719e-05
-1.1719e-05
-8.7891e-06
-1.1719e-05
-1.1719e-05
-1.4648e-05
-1.7578e-05
-2.0508e-05
-2.0508e-05
-2.0508e-05
-2.3437e-05
-2.3437e-05
-2.3437e-05
-2.3437e-05
-2.9297e-05
-3.2227e-05
-2.9297e-05
-2.9297e-05
-2.6367e-05
-2.3437e-05
-2.3437e-05
-2.0508e-05
-1.4648e-05
-1.4648e-05
-1.4648e-05
-1.4648e-05
-1.4648e-05
-1.4648e-05
-1.4648e-05
-1.1719e-05
-1.1719e-05
-1.1719e-05
-8.7891e-06
-8.7891e-06
-5.8594e-06
-5.8594e-06
-5.8594e-06
-5.8594e-06
-5.8594e-06
0
0
0
2.9297e-06
5.8594e-06
8.7891e-06
8.7891e-06
8.7891e-06
5.8594e-06
2.9297e-06
2.9297e-06
2.9297e-06
0
-5.8594e-06
-8.7891e-06
-1.1719e-05
-8.7891e-06
-8.7891e-06
-1.1719e-05
-5.8594e-06
-5.8594e-06
-8.7891e-06
-8.7891e-06
-8.7891e-06
-5.8594e-06
-2.9297e-06
-2.9297e-06
0
0
0
-2.9297e-06
-5.8594e-06
-1.1719e-05
-1.4648e-05
-1.7578e-05
-2.3437e-05
-2.6367e-05
-2.9297e-05
-2.9297e-05
-2.6367e-05
-2.9297e-05
-3.2227e-05
-3.5156e-05
-3.2227e-05
-2.9297e-05
-2.6367e-05
-2.6367e-05
-2.3437e-05
-2.3437e-05
-2.6367e-05
-2.3437e-05
-2.3437e-05
-2.0508e-05
-2.3437e-05
-2.3437e-05
-2.3437e-05
-2.3437e-05
-2.3437e-05
-2.0508e-05
-2.0508e-05
-2.3437e-05
-2.0508e-05
-2.3437e-05
-2.3437e-05
-2.3437e-05
-2.6367e-05
-2.9297e-05
-2.6367e-05
-2.6367e-05
-2.3437e-05
-2.0508e-05
-2.0508e-05
-1.7578e-05
-1.4648e-05
-1.7578e-05
-1.7578e-05
-1.4648e-05
-1.4648e-05
-1.1719e-05
-1.1719e-05
-8.7891e-06
-2.9297e-06
-5.8594e-06
-2.9297e-06
-2.9297e-06
0
0
2.9297e-06
8.7891e-06
8.7891e-06
1.1719e-05
1.4648e-05
1.7578e-05
2.0508e-05
2.3437e-05
2.6367e-05
3.2227e-05
3.5156e-05
3.5156e-05
4.1016e-05
4.6875e-05
5.5664e-05
5.8594e-05
6.1523e-05
6.4453e-05
6.4453e-05
6.7383e-05
6.7383e-05
6.7383e-05
6.7383e-05
6.1523e-05
5.8594e-05
5.5664e-05
5.5664e-05
5.2734e-05
4.9805e-05
5.2734e-05
4.9805e-05
4.9805e-05
4.9805e-05
4.6875e-05
4.6875e-05
4.6875e-05
4.3945e-05
4.3945e-05
4.3945e-05
3.8086e-05
3.5156e-05
2.9297e-05
2.3437e-05
2.0508e-05
1.7578e-05
1.4648e-05
8.7891e-06
5.8594e-06
0
-8.7891e-06
-1.4648e-05
-2.0508e-05
-2.3437e-05
-2.6367e-05
-2.9297e-05
-2.9297e-05
-2.6367e-05
-2.9297e-05
-3.8086e-05
-4.3945e-05
-5.2734e-05
-6.1523e-05
-6.7383e-05
-6.7383e-05
-6.7383e-05
-6.7383e-05
-6.7383e-05
-6.7383e-05
-6.7383e-05
-6.7383e-05
-7.0312e-05
-7.0312e-05
-6.7383e-05
-6.7383e-05
-6.4453e-05
-6.4453e-05
-6.1523e-05
-5.8594e-05
-5.8594e-05
-5.8594e-05
-5.5664e-05
-5.8594e-05
-5.8594e-05
-5.8594e-05
-5.8594e-05
-5.8594e-05
-5.8594e-05
-5.2734e-05
-5.2734e-05
-5.2734e-05
-4.9805e-05
-4.9805e-05
-4.9805e-05
-4.9805e-05
-4.9805e-05
-4.6875e-05
-4.6875e-05
-4.6875e-05
-4.3945e-05
-4.1016e-05
-3.8086e-05
-3.5156e-05
-2.9297e-05
-2.9297e-05
-2.3437e-05
-2.3437e-05
-2.3437e-05
-2.0508e-05
-2.0508e-05
-2.3437e-05
-2.0508e-05
-1.4648e-05
-1.1719e-05
-2.9297e-06
8.7891e-06
2.6367e-05
4.3945e-05
5.5664e-05
7.3242e-05
8.4961e-05
9.668e-05
0.00011426
0.00013184
0.00015234
0.00017578
0.00019629
0.00021973
0.00023437
0.00025488
0.0002666
0.00027539
0.00028418
0.00029297
0.00029883
0.00029883
0.0002959
0.00029004
0.00028125
0.0002666
0.00024316
0.0002168
0.00018457
0.00014355
0.00010254
5.2734e-05
2.9297e-06
-4.3945e-05
-9.082e-05
-0.00014355
-0.00019043
-0.0002373
-0.00027832
-0.00030762
-0.00033691
-0.00036035
-0.000375
-0.00038086
-0.00037793
-0.00037207
-0.00036035
-0.00034863
-0.00033105
-0.00031641
-0.00029883
-0.00028125
-0.00026074
-0.00024316
-0.00022852
-0.00021387
-0.00019922
-0.00018457
-0.00017285
-0.00016113
-0.00014355
-0.00013184
-0.00011719
-0.0001084
-9.375e-05
-8.7891e-05
-8.2031e-05
-7.6172e-05
-7.0312e-05
-6.4453e-05
-6.1523e-05
-5.8594e-05
-5.2734e-05
-4.6875e-05
-4.3945e-05
-4.3945e-05
-4.1016e-05
-3.8086e-05
-3.5156e-05
-3.2227e-05
-2.9297e-05
-2.3437e-05
-2.3437e-05
-2.6367e-05
-2.9297e-05
-2.6367e-05
-2.6367e-05
-2.6367e-05
-2.6367e-05
-2.3437e-05
-2.3437e-05
-2.0508e-05
-1.7578e-05
-1.1719e-05
-1.1719e-05
-1.1719e-05
-8.7891e-06
-8.7891e-06
-5.8594e-06
-5.8594e-06
-5.8594e-06
-2.9297e-06
0
0
2.9297e-06
8.7891e-06
1.1719e-05
1.4648e-05
1.7578e-05
2.0508e-05
2.0508e-05
2.3437e-05
2.6367e-05
2.9297e-05
2.6367e-05
2.6367e-05
2.6367e-05
2.3437e-05
2.3437e-05
2.3437e-05
2.3437e-05
2.3437e-05
2.6367e-05
3.2227e-05
3.5156e-05
4.1016e-05
4.3945e-05
4.6875e-05
4.6875e-05
5.2734e-05
5.2734e-05
5.5664e-05
5.8594e-05
5.8594e-05
6.4453e-05
6.7383e-05
7.0312e-05
7.6172e-05
7.9102e-05
8.2031e-05
8.2031e-05
8.2031e-05
8.4961e-05
8.4961e-05
8.7891e-05
8.7891e-05
9.082e-05
8.7891e-05
8.7891e-05
8.7891e-05
9.082e-05
9.082e-05
9.082e-05
9.082e-05
9.375e-05
9.668e-05
9.668e-05
9.668e-05
9.9609e-05
0.00010254
9.9609e-05
9.9609e-05
9.9609e-05
9.668e-05
9.668e-05
9.375e-05
9.375e-05
9.375e-05
9.375e-05
9.375e-05
9.668e-05
9.668e-05
9.668e-05
9.668e-05
9.9609e-05
9.9609e-05
0.00010254
0.00010254
9.9609e-05
9.668e-05
9.668e-05
9.375e-05
8.7891e-05
7.9102e-05
7.6172e-05
7.6172e-05
7.3242e-05
7.0312e-05
7.0312e-05
7.3242e-05
7.3242e-05
7.3242e-05
7.3242e-05
7.0312e-05
7.0312e-05
7.3242e-05
7.3242e-05
7.0312e-05
7.0312e-05
7.0312e-05
7.3242e-05
7.0312e-05
7.0312e-05
7.0312e-05
7.0312e-05
7.0312e-05
7.0312e-05
7.0312e-05
7.0312e-05
7.0312e-05
6.4453e-05
6.4453e-05
6.4453e-05
6.4453e-05
6.7383e-05
7.0312e-05
7.0312e-05
6.7383e-05
6.4453e-05
6.4453e-05
6.4453e-05
6.7383e-05
6.7383e-05
7.0312e-05
7.0312e-05
7.0312e-05
7.3242e-05
7.0312e-05
7.0312e-05
7.0312e-05
7.0312e-05
7.0312e-05
7.0312e-05
7.0312e-05
7.0312e-05
7.0312e-05
7.0312e-05
6.7383e-05
6.4453e-05
6.7383e-05
6.7383e-05
7.0312e-05
7.0312e-05
6.7383e-05
6.4453e-05
5.8594e-05
5.5664e-05
4.9805e-05
4.6875e-05
4.6875e-05
4.1016e-05
3.8086e-05
3.8086e-05
3.5156e-05
2.9297e-05
2.6367e-05
2.0508e-05
1.4648e-05
8.7891e-06
5.8594e-06
0
-5.8594e-06
-1.1719e-05
-1.4648e-05
-1.7578e-05
-2.3437e-05
-2.6367e-05
-3.2227e-05
-3.5156e-05
-4.1016e-05
-4.6875e-05
-4.9805e-05
-5.5664e-05
-5.8594e-05
-6.1523e-05
-6.7383e-05
-7.3242e-05
-8.2031e-05
-8.7891e-05
-9.082e-05
-9.375e-05
-9.668e-05
-9.668e-05
-9.668e-05
-9.668e-05
-9.9609e-05
-0.00010547
-0.00010547
-0.00010547
-0.00010254
-0.00010547
-0.00010547
-0.00010547
-0.0001084
-0.0001084
-0.0001084
-0.0001084
-0.00011133
-0.00011426
-0.00011426
-0.00011719
-0.00012012
-0.00012305
-0.00012012
-0.00012012
-0.00012012
-0.00011719
-0.00011426
-0.00011133
-0.00011133
-0.00011133
-0.00011133
-0.00011426
-0.00011719
-0.00011719
-0.00011719
-0.00012012
-0.00012012
-0.00012012
-0.00012012
-0.00012012
-0.00011719
-0.00011426
-0.00011426
-0.0001084
-0.0001084
-0.00010547
-0.00010547
-0.0001084
-0.0001084
-0.00011426
-0.00011133
-0.00011133
-0.0001084
-0.00010547
-0.0001084
-0.00010547
-0.0001084
-0.00010547
-0.00010254
-9.9609e-05
-9.9609e-05
-0.00010254
-9.9609e-05
-9.9609e-05
-9.9609e-05
-9.375e-05
-9.082e-05
-9.082e-05
-9.082e-05
-9.082e-05
-9.082e-05
-9.082e-05
-9.375e-05
-9.082e-05
-8.7891e-05
-8.4961e-05
-8.4961e-05
-8.4961e-05
-7.9102e-05
-7.9102e-05
-7.9102e-05
-8.2031e-05
-8.4961e-05
-8.4961e-05
-8.7891e-05
-9.082e-05
-9.082e-05
-9.082e-05
-9.375e-05
-9.375e-05
-9.375e-05
-9.668e-05
-9.668e-05
-9.375e-05
-9.375e-05
-9.375e-05
-9.375e-05
-9.375e-05
-9.375e-05
-9.375e-05
-9.668e-05
-9.9609e-05
-9.9609e-05
-9.668e-05
-9.668e-05
-9.375e-05
-9.375e-05
-9.375e-05
-9.375e-05
-9.082e-05
-8.7891e-05
-8.4961e-05
-8.4961e-05
-8.2031e-05
-8.2031e-05
-8.4961e-05
-8.4961e-05
-8.4961e-05
-7.9102e-05
-7.6172e-05
-7.3242e-05
-7.3242e-05
-7.3242e-05
-7.0312e-05
-7.0312e-05
-6.7383e-05
-6.7383e-05
-6.7383e-05
-6.4453e-05
-6.4453e-05
-6.1523e-05
-6.1523e-05
-6.1523e-05
-5.8594e-05
-5.8594e-05
-4.9805e-05
-4.6875e-05
-4.3945e-05
-3.5156e-05
-2.9297e-05
-2.3437e-05
-2.3437e-05
-2.0508e-05
-1.7578e-05
-1.4648e-05
-1.1719e-05
-1.1719e-05
-1.1719e-05
-1.4648e-05
-2.0508e-05
-2.0508e-05
-2.3437e-05
-2.3437e-05
-2.3437e-05
-2.3437e-05
-2.3437e-05
-2.0508e-05
-2.0508e-05
-1.7578e-05
-1.1719e-05
-8.7891e-06
-8.7891e-06
-2.9297e-06
0
2.9297e-06
5.8594e-06
8.7891e-06
5.8594e-06
5.8594e-06
2.9297e-06
0
0
0
2.9297e-06
2.9297e-06
5.8594e-06
5.8594e-06
2.9297e-06
0
-2.9297e-06
-2.9297e-06
-2.9297e-06
-5.8594e-06
-5.8594e-06
-8.7891e-06
-5.8594e-06
-2.9297e-06
0
0
-2.9297e-06
-2.9297e-06
-2.9297e-06
-5.8594e-06
-5.8594e-06
-8.7891e-06
-8.7891e-06
-8.7891e-06
-1.1719e-05
-1.1719e-05
-1.1719e-05
-1.4648e-05
-1.4648e-05
-1.7578e-05
-1.7578e-05
-2.0508e-05
-2.0508e-05
-2.0508e-05
-2.0508e-05
-2.0508e-05
-2.0508e-05
-2.3437e-05
-2.0508e-05
-2.3437e-05
-2.3437e-05
-2.3437e-05
-2.9297e-05
-3.2227e-05
-3.5156e-05
-3.5156e-05
-3.5156e-05
-3.5156e-05
-3.5156e-05
-3.5156e-05
-3.2227e-05
-2.9297e-05
-2.6367e-05
-2.9297e-05
-2.6367e-05
-2.6367e-05
-2.6367e-05
-2.3437e-05
-2.6367e-05
-2.6367e-05
-2.6367e-05
-2.6367e-05
-2.6367e-05
-2.6367e-05
-2.3437e-05
-2.6367e-05
-2.6367e-05
-2.3437e-05
-2.3437e-05
-2.0508e-05
-2.0508e-05
-1.7578e-05
