3.7949,4.9222,4.5084,4.0975,4.9791,5.494,4.449,3.677,4.2008,4.262,2.9802,2.4326,3.2974,3.5933,2.7689,2.9072,4.2829,4.7478,4.0941,4.4127,5.6033,5.5342,4.4437,4.4298,5.0951,4.4369,3.1151,3.1459,3.8194,3.2711,2.4669,3.2119,4.3366,4.087,3.6808,4.7265,5.7062,5.1645,4.5088,5.1107,5.4422,4.2555,3.3998,3.9385,4.0552,2.9146,2.5173,3.6039,4.0923,3.4236,3.6127,5.0136,5.394,4.6051,4.6671,5.632,5.3083,4.0177,3.8071,4.4221,3.7648,2.5153,2.7535,3.7185,3.4299,2.7908,3.6084,4.8067,4.5534,4.0422,4.8467,5.6387,4.8292,3.9001,4.3329,4.5491,3.351,2.5257,3.1853,3.6139,2.8014,2.6312,3.9032,4.5876,3.9839,4.1128,5.3681,5.6308,4.653,4.4812,5.2373,4.8454,3.4659,3.3118,3.989,3.609,2.56,2.97,4.1669,4.0857,3.5146,4.3335,5.4908,5.157,4.4312,4.9835,5.5985,4.5869,3.5277,3.8822,4.1816,3.055,2.3523,3.2452,3.8451,3.2266,3.1271,4.4439,5.0998,4.4193,4.3587,5.3986,5.4617,4.2079,3.8259,4.4409,4.0224,2.6978,2.5604,3.4972,3.3757,2.5754,3.1506,4.4651,4.4709,3.8866,4.6536,5.7361,5.2381,4.2922,4.6683,5.1451,4.0716,2.99,3.4375,3.9492,3.11,2.671,3.7378,4.6023,4.1099,4.0692,5.3163,5.8952,5.0286,4.739,5.5446,5.4434,4.116,3.6155,4.2876,4.0417,2.8647,2.9452,4.0296,4.061,3.3828,4.0125,5.3661,5.3164,4.5319,4.9727,5.7511,4.9722,3.7426,3.952,4.39,3.4275,2.4895,3.1397,3.9025,3.3402,3.0127,4.2563,5.3226,4.9046,4.8117,5.9553,6.4313,5.4025,4.9315,5.7172,5.7083,4.5324,4.232,5.2362,5.3781,4.6367,5.0522,6.5235,6.8737,6.3648,6.994,8.2789,8.0929,7.0986,7.2535,7.7332,6.7581,5.22,5.1683,5.3852,4.1571,2.9203,3.1928,3.6023,2.6627,1.8389,2.5072,2.8702,1.7533,0.92483,1.4131,1.4051,0.0039818,-0.726,-0.065839,-0.044827,-1.1373,-1.215,0.013466,0.47319,-0.042976,0.53548,2.1253,2.5366,1.9695,2.5063,3.6374,3.3971,2.3584,2.5304,3.2309,2.6064,1.5773,2.0966,3.0098,2.6242,2.1733,3.2745,4.4916,4.2179,3.9861,5.0847,5.8347,5.0054,4.3615,4.991,5.1392,3.8392,3.1963,3.8998,4.0713,3.1181,3.0938,4.3811,4.8552,4.2792,4.6501,5.951,6.0595,5.1029,5.2307,6.0312,5.4674,4.161,4.0982,4.7221,4.0866,3.0918,3.6354,4.6761,4.3654,3.914,4.99,6.1118,5.6902,5.1391,5.88,6.3655,5.2861,4.3394,4.8387,4.898,3.6671,3.0946,3.9971,4.4009,3.6758,3.7988,5.1633,5.6686,4.9495,5.1231,6.2288,6.1709,4.9835,4.8257,5.4667,4.8761,3.5608,3.638,4.481,4.1242,3.3466,4.1304,5.3753,5.2349,4.7648,5.7013,6.6854,6.0479,5.2428,5.7716,6.0741,4.9019,3.9584,4.4694,4.7513,3.73,3.3559,4.4744,5.1623,4.5823,4.7027,6.0319,6.4864,5.6215,5.5431,6.4463,6.1519,4.8038,4.4998,5.1164,4.6715,3.5363,3.7926,4.8771,4.7701,4.1873,5.0249,6.285,6.0847,5.4606,6.176,6.9527,6.1114,5.1177,5.4887,5.7869,4.6634,3.8056,4.5069,5.0364,4.2319,4.0387,5.3033,6.0769,5.4774,5.4819,6.6161,6.8922,5.8005,5.4702,6.1933,5.8776,4.4699,4.2212,5.0072,4.7892,3.904,4.3278,5.6172,5.6762,5.1389,5.9187,7.111,6.7891,5.9276,6.3858,6.9722,6.026,4.8963,5.2447,5.6516,4.6777,3.9749,4.86,5.6365,5.0849,4.975,6.2259,6.9713,6.2464,6.0249,6.9235,7.0032,5.7212,5.2232,5.8568,5.5433,4.247,4.1449,5.1249,5.0815,4.3122,4.805,6.1588,6.2188,5.5264,6.0891,6.9976,6.414,5.2867,5.4812,5.8866,4.8484,3.697,4.0998,4.6371,3.9411,3.4412,4.4442,5.3245,4.7593,4.5047,5.6004,6.0792,5.087,4.5458,5.1671,5.0604,3.6409,3.0529,3.6802,3.557,2.4417,2.4511,3.624,3.7907,3.1575,3.6774,4.9225,4.8475,3.92,4.1963,4.9486,4.1686,2.8606,2.9703,3.4224,2.58,1.6163,2.2741,3.1525,2.688,2.3519,3.5082,4.4142,3.8105,3.4287,4.329,4.693,3.5225,2.8023,3.39,3.3433,2.0766,1.6521,2.529,2.6941,1.8667,2.1571,3.5257,3.8403,3.1742,3.5804,4.6829,4.4769,3.3676,3.4336,3.9807,3.1736,1.939,2.1356,2.8509,2.2735,1.5804,2.4926,3.6293,3.3282,2.9979,4.0467,4.9002,4.1779,3.5711,4.1986,4.4245,3.1606,2.3535,2.9591,3.0251,1.8865,1.6805,2.8415,3.3356,2.6695,3.0133,4.4113,4.6723,3.9034,4.0685,4.9747,4.5794,3.3126,3.266,3.8829,3.192,2.0507,2.444,3.3735,3.0503,2.5637,3.5575,4.7138,4.3777,3.9424,4.85,5.5077,4.5733,3.7308,4.2414,4.3511,3.1016,2.4094,3.191,3.4671,2.5982,2.5524,3.856,4.4051,3.8304,4.0556,5.3457,5.4722,4.3861,4.2627,4.9193,4.4191,3.0874,3.0098,3.719,3.2362,2.3025,2.8691,4.0526,3.8858,3.4376,4.4058,5.4672,5.0258,4.359,5.0134,5.4746,4.3817,3.402,3.8365,4.0309,2.9328,2.3491,3.2868,3.8493,3.2154,3.2752,4.6875,5.2387,4.5279,4.5137,5.5521,5.4206,4.1827,3.8984,4.5611,4.0923,2.8101,2.8896,3.8467,3.6251,2.9292,3.6452,4.8959,4.7859,4.2048,4.9812,5.8953,5.2217,4.3062,4.6837,5.0026,3.8434,2.897,3.4539,3.9119,3.0796,2.6989,3.8325,4.5535,4.0159,4.0455,5.3054,5.6997,4.7264,4.4496,5.2062,4.9572,3.6079,3.2627,3.9563,3.6551,2.5925,2.8391,4.0317,4.0652,3.4948,4.2389,5.5325,5.3684,4.6516,5.2101,5.9113,5.0533,3.9295,4.2568,4.6275,3.6043,2.7628,3.5099,4.1958,3.5714,3.371,4.6893,5.5561,4.973,4.8364,5.9207,6.1767,5.0119,4.5668,5.2418,4.9668,3.5891,3.3238,4.1681,4.0895,3.2243,3.6492,4.9782,5.069,4.4594,5.0592,6.1773,5.7737,4.7814,5.0923,5.6616,4.7178,3.5747,3.9061,4.4347,3.6292,2.9915,3.946,4.8236,4.3239,4.154,5.3985,6.1234,5.3748,4.9884,5.7725,5.8201,4.4751,3.855,4.4664,4.3375,3.1206,2.9744,4.0505,4.2531,3.5629,4.068,5.4614,5.584,4.8587,5.3207,6.2521,5.7086,4.536,4.6829,5.1525,4.2348,3.155,3.6402,4.3807,3.8293,3.3488,4.4116,5.4579,5.0061,4.7244,5.7647,6.308,5.2835,4.6184,5.2126,5.1495,3.7841,3.2199,3.9908,4.0596,3.1026,3.1815,4.482,4.8525,4.2175,4.6619,5.9196,5.8363,4.8534,4.966,5.6691,4.9379,3.6375,3.6974,4.3265,3.5942,2.7353,3.4263,4.378,3.9993,3.6373,4.7661,5.779,5.1812,4.7073,5.5322,5.8753,4.6993,3.9279,4.5108,4.5651,3.3502,2.9924,3.9765,4.2785,3.5352,3.741,5.096,5.4104,4.6008,4.8257,5.878,5.6533,4.4432,4.3759,4.977,4.2759,3.0501,3.2467,4.0568,3.6381,2.9602,3.8207,5.0159,4.7776,4.3942,5.3598,6.2178,5.4786,4.7481,5.316,5.5568,4.3112,3.4821,4.0785,4.2915,3.2968,3.081,4.2483,4.8183,4.2211,4.4536,5.8072,6.1343,5.2459,5.2995,6.1274,5.7093,4.3278,4.1426,4.7814,4.222,3.134,3.5217,4.5768,4.3663,3.8305,4.7791,5.993,5.6942,5.1021,5.8351,6.4554,5.5169,4.5539,4.9621,5.171,4.0287,3.3372,4.1736,4.6432,3.8874,3.8665,5.2195,5.8195,5.1993,5.2595,6.4019,6.4818,5.3043,5.0579,5.6708,5.199,3.8124,3.6814,4.4571,4.1377,3.2705,3.8196,5.0954,5.0541,4.5319,5.3372,6.4327,5.9053,5.0655,5.5472,5.9942,4.912,3.8672,4.3141,4.631,3.6553,3.0981,4.0921,4.7999,4.2151,4.2203,5.5342,6.1087,5.3371,5.1857,6.0633,5.9253,4.6001,4.2103,4.854,4.4421,3.1877,3.2209,4.2601,4.1989,3.5178,4.2024,5.5186,5.4771,4.8579,5.4865,6.3494,5.6168,4.5482,4.847,5.1715,4.1117,3.1288,3.743,4.3241,3.5976,3.2631,4.4491,5.3259,4.7834,4.6723,5.8393,6.2486,5.2575,4.8769,5.5828,5.3694,3.9892,3.5966,4.3521,4.1797,3.2011,3.4632,4.7178,4.9046,4.3296,5.0132,6.2845,6.1137,5.2419,5.6113,6.2701,5.4149,4.2161,4.4609,4.9223,4.0218,3.2409,4.0615,4.9239,4.412,4.1873,5.4142,6.2604,5.6499,5.3606,6.2955,6.4744,5.2535,4.5955,5.2098,5.0571,3.7364,3.4707,4.4348,4.5253,3.7357,4.1447,5.5155,5.704,5.0638,5.5807,6.6374,6.2393,5.1272,5.2139,5.7226,4.8369,3.6201,3.8922,4.552,3.8956,3.2945,4.2735,5.2891,4.8822,4.6611,5.8437,6.6172,5.8415,5.3217,6.053,6.1124,4.7898,4.1016,4.7661,4.7514,3.6601,3.5902,4.7801,5.1272,4.4727,4.9662,6.3118,6.4199,5.5654,5.7727,6.5781,5.9711,4.6592,4.661,5.184,4.3527,3.2775,3.7623,4.6724,4.2607,3.8168,4.914,5.9233,5.4793,5.0383,5.8898,6.3746,5.2409,4.4388,4.9911,4.9636,3.681,3.0447,3.8501,4.0866,3.2321,3.3402,4.6858,5.1206,4.4661,4.8132,6.0323,5.9624,4.9004,4.8856,5.5501,4.8911,3.5685,3.6278,4.3591,3.8393,3.0342,3.7491,4.8731,4.6519,4.245,5.2898,6.298,5.7262,5.0697,5.7587,6.0894,4.9311,4.016,4.5246,4.6698,3.5577,3.1888,4.2454,4.733,4.0634,4.281,5.6225,6.0607,5.271,5.3907,6.3548,6.089,4.7975,4.5568,5.171,4.5715,3.3505,3.5585,4.4934,4.1747,3.5641,4.4395,5.6369,5.4121,4.9001,5.7624,6.6122,5.8605,5.077,5.6262,5.9881,4.9356,4.1975,4.9734,5.4891,4.793,4.7685,6.2154,7.0161,6.5874,6.8035,8.2043,8.6128,7.722,7.6373,8.4805,8.1464,6.7953,6.5818,7.2583,6.7603,5.5932,5.7973,6.7005,6.3255,5.402,5.81,6.4977,5.665,4.4403,4.5231,4.6099,3.1287,1.6293,1.6021,1.5198,0.18732,-0.77986,-0.063564,0.50622,-0.083813,-0.066913,1.3956,2.2557,1.7209,1.806,3.0208,3.3174,2.2679,2.0316,2.8509,2.6366,1.4285,1.4953,2.5191,2.4847,1.8301,2.5509,4.0111,4.1918,3.7826,4.6073,5.7477,5.3074,4.4193,4.8239,5.3584,4.372,3.3189,3.7949,4.3643,3.5829,3.1724,4.297,5.1606,4.6381,4.6259,5.8722,6.5089,5.6708,5.3804,6.1852,6.0831,4.7842,4.3122,5.0127,4.766,3.6175,3.6972,4.8393,4.9579,4.3081,4.9371,6.2899,6.2393,5.5418,6.0404,6.8473,6.1555,5.013,5.2508,5.688,4.6954,3.7566,4.3767,5.1387,4.5756,4.2472,5.4608,6.3797,5.873,5.6915,6.7756,7.1922,6.104,5.6028,6.2413,6.0851,4.7326,4.3142,5.1711,5.1657,4.277,4.5745,5.9278,6.16,5.5331,6.0735,7.3283,7.1122,6.1171,6.3298,6.9552,6.1257,4.909,5.1202,5.7171,4.957,4.1881,5.0164,5.9817,5.598,5.3593,6.5248,7.4143,6.736,6.317,7.1267,7.3229,6.0382,5.3367,5.8788,5.7818,4.5421,4.2585,5.2517,5.5056,4.7835,5.1854,6.5986,6.8333,6.0896,6.4498,7.4336,6.9874,5.7429,5.7382,6.2914,5.4903,4.3139,4.6566,5.4225,4.9188,4.3207,5.2746,6.403,6.0406,5.6907,6.7007,7.3912,6.5026,5.7992,6.3986,6.4874,5.1866,4.4842,5.1576,5.2697,4.2864,4.232,5.5185,5.9332,5.2978,5.6385,6.9386,7.0756,6.1182,6.1866,6.957,6.363,4.9972,4.9336,5.4981,4.8911,3.9248,4.5262,5.566,5.3131,4.8316,5.8481,6.9105,6.4881,5.9362,6.7349,7.2196,6.1687,5.3091,5.8368,5.9539,4.7515,4.1782,5.0505,5.4535,4.6397,4.7033,6.0669,6.5715,5.8808,6.0537,7.1585,7.0705,5.8823,5.7236,6.3638,5.7725,4.4563,4.4741,5.2576,4.8122,4.0045,4.6996,5.885,5.6559,5.185,6.0621,7.0161,6.3485,5.5132,5.9826,6.255,5.0527,4.0498,4.5307,4.7531,3.7017,3.2976,4.3273,4.9266,4.2578,4.3481,5.6472,6.013,5.0886,4.9801,5.8239,5.558,4.209,3.8749,4.4615,3.9279,2.7332,2.9301,3.9552,3.7595,3.0586,3.8369,5.0668,4.8658,4.2115,4.8968,5.6141,4.772,3.7189,4.089,4.3864,3.2621,2.3742,3.0454,3.5155,2.7395,2.5455,3.8092,4.5527,3.9524,3.9267,5.0894,5.3355,4.1843,3.8532,4.5754,4.2297,2.7919,2.5423,3.3275,3.0794,2.164,2.587,3.817,3.8753,3.3078,4.1161,5.3076,4.9556,4.0933,4.5214,5.1069,4.1599,3.0587,3.4356,3.8709,2.9548,2.2512,3.194,3.9991,3.4466,3.3652,4.6153,5.3599,4.6341,4.4412,5.3683,5.3885,4.135,3.6068,4.2689,4.0132,2.7454,2.6425,3.6509,3.6654,2.9538,3.5044,4.8867,4.9751,4.3405,4.961,5.9859,5.46,4.3613,4.5842,5.0181,4.0377,2.944,3.4339,4.029,3.3615,2.8901,3.9801,4.8889,4.3814,4.2433,5.3675,5.904,4.9989,4.5154,5.2239,5.1456,3.7546,3.195,3.9095,3.8147,2.7572,2.8244,4.0551,4.2795,3.6455,4.1939,5.5261,5.4795,4.5806,4.8853,5.6075,4.8853,3.635,3.8025,4.3124,3.4691,2.534,3.1909,4.0685,3.6325,3.3249,4.5097,5.4735,4.9275,4.5742,5.5323,5.8955,4.7827,4.0618,4.6779,4.6304,3.3043,2.8789,3.7843,3.978,3.179,3.4978,4.895,5.2673,4.6297,5.0351,6.1368,5.9007,4.7613,4.7971,5.3727,4.5941,3.3587,3.5545,4.2397,3.6614,2.909,3.791,4.8976,4.5957,4.2646,5.3711,6.2532,5.5593,4.9517,5.6369,5.8327,4.5973,3.8187,4.4235,4.4887,3.3785,3.1131,4.2148,4.6495,3.9825,4.3549,5.7519,6.0121,5.2132,5.3775,6.2535,5.8574,4.5899,4.5424,5.1292,4.4374,3.2953,3.7171,4.6751,4.3218,3.8051,4.7981,5.9242,5.6166,5.1512,6.0287,6.6856,5.7797,4.9364,5.4755,5.6136,4.3633,3.641,4.3925,4.6971,3.8274,3.7807,5.0836,5.6319,4.9684,5.2221,6.4528,6.5198,5.4622,5.3381,6.0524,5.4928,4.131,4.0526,4.7317,4.2481,3.2843,3.8793,5.0327,4.8652,4.3869,5.3249,6.4148,5.9726,5.2464,5.8706,6.3311,5.208,4.1982,4.6026,4.7669,3.668,3.1127,4.1082,4.6992,3.9766,4.0063,5.3299,5.8803,5.1394,5.1537,6.1327,6.0004,4.7324,4.4765,5.1678,4.6981,3.4444,3.5231,4.45,4.2276,3.5017,4.2168,5.496,5.3852,4.8033,5.6082,6.5215,5.8763,4.9308,5.3367,5.6841,4.5534,3.5476,4.1037,4.5023,3.6398,3.2584,4.4204,5.1699,4.6315,4.6603,5.8901,6.3715,5.456,5.2076,5.9927,5.7429,4.422,4.0761,4.7103,4.379,3.2862,3.5027,4.6359,4.6394,4.0388,4.7821,6.0456,5.8221,5.0752,5.6329,6.3332,5.5037,4.4084,4.7056,5.0462,3.9929,3.1506,3.8676,4.5527,3.9275,3.7262,4.9852,5.7632,5.1793,5.0713,6.1254,6.3514,5.1857,4.6812,5.2968,4.9917,3.6425,3.3764,4.2492,4.1404,3.2451,3.6985,5.0267,5.1753,4.5941,5.2225,6.3398,5.994,4.9716,5.2524,5.8501,4.9348,3.7616,4.1215,4.6493,3.8137,3.1459,4.0996,4.9763,4.4758,4.3051,5.5488,6.3315,5.5528,5.1949,6.0075,6.0836,4.7671,4.2047,4.8446,4.6564,3.4386,3.3502,4.4255,4.598,3.907,4.4113,5.8039,5.8964,5.141,5.5436,6.4449,5.8713,4.6686,4.8146,5.3127,4.4235,3.343,3.798,4.567,3.9855,3.5628,4.6541,5.6703,5.2177,4.9352,6.004,6.5464,5.609,4.9724,5.5951,5.5898,4.2529,3.7172,4.4872,4.5846,3.5974,3.7048,4.9752,5.3156,4.6798,5.0942,6.3217,6.2669,5.2832,5.4536,6.1559,5.4531,4.152,4.2111,4.8101,4.1063,3.2173,3.9074,4.917,4.596,4.2625,5.332,6.3147,5.7455,5.2121,5.9776,6.2907,5.1139,4.3123,4.8944,4.9186,3.7322,3.315,4.2691,4.6288,3.8847,4.0897,5.4732,5.8453,5.1229,5.4349,6.4863,6.2609,5.05,4.9818,5.6114,4.8802,3.6243,3.8201,4.6294,4.2099,3.5312,4.3616,5.5267,5.2876,4.8741,5.8389,6.6668,5.8975,5.1369,5.704,5.9147,4.639,3.8091,4.4633,4.6755,3.68,3.4927,4.7177,5.287,4.6889,4.9499,6.2735,6.5705,5.6227,5.6462,6.4733,6.0251,4.6428,4.4275,5.0069,4.4174,3.2993,3.6862,4.7405,4.5585,4.0219,4.9404,6.1242,5.7953,5.261,5.9932,6.642,5.6441,4.6803,5.1463,5.3251,4.1527,3.4311,4.2081,4.7062,3.9497,3.8693,5.1922,5.8207,5.229,5.347,6.5179,6.6263,5.5066,5.2594,5.9887,5.5747,4.2166,4.1141,4.9183,4.5688,3.7008,4.3076,5.5241,5.4527,4.9297,5.7928,6.8582,6.3593,5.4894,5.9411,6.3872,5.3042,4.2294,4.6461,4.933,3.9271,3.3691,4.3624,5.0693,4.4837,4.4588,5.772,6.3164,5.4854,5.3039,6.21,6.1005,4.7452,4.3253,4.9682,4.5555,3.3003,3.3034,4.3125,4.2212,3.5686,4.2524,5.5678,5.4669,4.8177,5.4161,6.249,5.5156,4.4461,4.7149,5.0972,4.0366,3.0822,3.6957,4.2759,3.5486,3.2426,4.4571,5.3331,4.8192,4.7073,5.8735,6.282,5.2901,4.9086,5.6431,5.4289,4.0186,3.6252,4.3799,4.236,3.2566,3.5472,4.801,4.8992,4.294,4.9476,6.2181,6.0172,5.1446,5.5425,6.2005,5.3445,4.2035,4.4475,4.9081,4.0361,3.2252,4.0157,4.848,4.3353,4.1098,5.3359,6.1813,5.5407,5.2506,6.2141,6.4214,5.229,4.6582,5.3302,5.206,3.9724,3.8231,4.9037,5.1399,4.4667,4.992,6.5086,6.8427,6.3482,6.9816,8.1839,7.9315,6.9065,7.1682,7.764,6.9361,5.865,6.2535,6.9711,6.3432,5.712,6.6609,7.5878,7.0337,6.5774,7.4662,7.8874,6.6715,5.77,6.0611,5.6802,3.9175,2.8182,3.0718,2.6755,1.1733,0.72174,1.5885,1.5833,0.66437,0.92262,2.1795,2.2577,1.4316,1.7846,2.7943,2.3916,1.3133,1.5194,2.2467,1.6196,0.74879,1.4086,2.4351,2.1398,1.7829,2.9379,4.0929,3.7654,3.4994,4.5845,5.2736,4.3148,3.6291,4.2686,4.3867,3.1913,2.6714,3.5931,3.9168,3.1493,3.3153,4.7187,5.2113,4.6439,5.0195,6.2671,6.2257,5.163,5.1767,5.8697,5.2392,3.9452,4.033,4.7342,4.1843,3.4078,4.1511,5.3036,5.0231,4.6154,5.6594,6.6375,6.0649,5.4662,6.1545,6.4844,5.2667,4.3509,4.888,5.0031,3.8902,3.4912,4.5763,5.0631,4.3928,4.6096,5.9797,6.4463,5.6852,5.8041,6.7967,6.5301,5.2378,5.0842,5.7269,5.156,3.9342,4.1708,5.1342,4.8732,4.2911,5.1658,6.421,6.2248,5.7705,6.6321,7.4811,6.67,5.71,6.1412,6.3851,5.1854,4.3293,4.9872,5.3556,4.483,4.2819,5.5816,6.2351,5.6591,5.7865,7.0401,7.3013,6.2925,6.1485,6.9323,6.5095,5.1284,4.8848,5.5898,5.1789,4.1869,4.5952,5.732,5.6492,5.1351,5.9524,7.1374,6.802,6.1039,6.7133,7.2973,6.2841,5.1941,5.547,5.8448,4.7752,4.0709,4.9329,5.5605,4.9404,4.8393,6.1253,6.8089,6.0975,6.0353,7.0736,7.1351,5.9676,5.6134,6.2853,5.9238,4.6563,4.5466,5.4525,5.3001,4.4689,5.0132,6.3261,6.3303,5.7445,6.422,7.4444,6.9447,5.9387,6.2839,6.7591,5.684,4.6301,5.1053,5.6154,4.7746,4.3047,5.3407,6.1743,5.6803,5.5794,6.8249,7.4023,6.5341,6.2136,7.0176,6.9148,5.5566,5.0837,5.7542,5.5361,4.3868,4.4657,5.5778,5.6369,4.9571,5.5267,6.7908,6.6809,5.9534,6.4219,7.1988,6.4769,5.2457,5.4242,5.8606,4.8673,3.8984,4.5177,5.2789,4.6858,4.3273,5.5108,6.3997,5.8629,5.622,6.6175,6.9455,5.7979,5.1788,5.7872,5.6009,4.189,3.7113,4.5381,4.5027,3.5546,3.7928,5.0867,5.2595,4.544,4.9958,6.1326,5.8279,4.7734,4.956,5.5514,4.6626,3.3865,3.5676,4.0759,3.2564,2.4575,3.2557,4.1909,3.7186,3.4205,4.5853,5.4154,4.7364,4.2287,5.0083,5.1745,3.889,3.1574,3.7574,3.689,2.4777,2.1934,3.2152,3.4683,2.6869,3.0587,4.3833,4.6172,3.8434,4.1736,5.1566,4.739,3.5229,3.5468,4.1286,3.356,2.1788,2.5501,3.3738,2.8987,2.3584,3.3408,4.4685,4.1053,3.7547,4.7639,5.4536,4.535,3.8015,4.3709,4.4296,3.128,2.425,3.1562,3.3261,2.3714,2.3162,3.5726,4.0159,3.3797,3.749,5.0776,5.2432,4.3143,4.4112,5.2102,4.6448,3.3368,3.3018,3.9534,3.3163,2.2906,2.8327,3.8425,3.5595,3.1066,4.1223,5.2426,4.8194,4.2961,5.0939,5.5779,4.4383,3.5487,4.0757,4.1334,2.8717,2.2683,3.1692,3.5421,2.7862,2.9077,4.2998,4.8329,4.1415,4.3429,5.4763,5.4168,4.2279,4.0978,4.7372,4.1158,2.7989,2.8452,3.628,3.2111,2.4319,3.1556,4.3403,4.1105,3.6388,4.5444,5.4977,4.8586,4.0226,4.5206,4.8508,3.6771,2.7027,3.2414,3.551,2.5575,2.2111,3.328,3.9851,3.3742,3.493,4.8793,5.3029,4.495,4.4444,5.346,5.1087,3.7882,3.512,4.1564,3.6806,2.5145,2.74,3.8229,3.7144,3.13,3.9661,5.2245,5.0228,4.4263,5.1109,5.8567,5.0139,3.9894,4.3587,4.6554,3.5596,2.7296,3.4294,3.9573,3.2098,3.0444,4.3366,5.1087,4.5369,4.5984,5.7897,6.0643,4.9417,4.6391,5.302,4.9263,3.5463,3.3253,4.1391,3.8902,2.9448,3.367,4.6549,4.7417,4.2028,5.0103,6.1718,5.8777,5.0146,5.442,5.9975,5.0497,3.9185,4.2946,4.6707,3.7245,3.0495,3.9623,4.7372,4.1841,4.0727,5.3513,6.0952,5.3979,5.1456,6.072,6.1501,4.8372,4.3377,4.9697,4.7133,3.4447,3.3704,4.4074,4.3918,3.6795,4.2293,5.5524,5.6107,4.9461,5.5658,6.59,6.0634,5.0225,5.1862,5.6486,4.6381,3.5145,3.9743,4.5686,3.8711,3.3404,4.4297,5.3378,4.8588,4.7199,5.8727,6.4085,5.4734,4.9599,5.6969,5.5593,4.1969,3.6952,4.4382,4.3427,3.2844,3.3802,4.6102,4.8046,4.1991,4.7468,6.049,6.0017,5.102,5.3767,6.0982,5.4045,4.1536,4.2617,4.7416,3.8976,2.9617,3.6179,4.4361,3.9994,3.6618,4.8166,5.7796,5.2329,4.8789,5.8363,6.1988,5.056,4.3636,4.9497,4.8136,3.4867,3.0607,3.9068,4.0411,3.1828,3.4423,4.7801,5.0931,4.4548,4.8302,5.9311,5.6943,4.5835,4.6479,5.2521,4.4435,3.1487,3.3145,3.9697,3.3321,2.5789,3.431,4.5075,4.1756,3.8731,4.9789,5.8016,5.0777,4.4987,5.154,5.349,4.025,3.2163,3.8498,3.9142,2.8326,2.5958,3.6967,4.1014,3.4045,3.7175,5.0846,5.344,4.515,4.6786,5.6126,5.1865,3.8889,3.8407,4.4267,3.7343,2.5915,2.9832,3.9698,3.6158,3.069,4.0321,5.2161,4.937,4.471,5.377,6.0332,5.1266,4.3118,4.7916,4.8997,3.6487,2.9257,3.7351,4.0683,3.1978,3.1798,4.5112,5.0588,4.4239,4.6476,5.8775,6.0025,4.9735,4.9072,5.6208,5.0605,3.698,3.6482,4.3851,3.8715,2.9363,3.5014,4.7127,4.5444,4.0654,5.0613,6.1505,5.7075,4.9806,5.6335,6.0932,5.028,4.0761,4.5091,4.6727,3.5438,2.9878,3.9533,4.485,3.8496,3.9079,5.2601,5.8391,5.1267,5.1403,6.1479,6.0442,4.7169,4.4017,5.0337,4.534,3.221,3.2404,4.1373,3.8556,3.0997,3.8141,5.0926,4.9811,4.4278,5.2026,6.1446,5.4987,4.5817,4.9869,5.3337,4.173,3.1958,3.7219,4.1491,3.2566,2.9037,4.0357,4.7552,4.1576,4.2149,5.4441,5.8661,4.9206,4.6423,5.3973,5.1175,3.7374,3.3615,4.0536,3.7509,2.6574,2.9025,4.0643,4.067,3.4951,4.2377,5.5005,5.2763,4.5287,5.0564,5.756,4.9551,3.8591,4.1263,4.4662,3.4415,2.5692,3.3148,4.0285,3.4026,3.2006,4.4882,5.3241,4.7102,4.6015,5.6549,5.9388,4.7432,4.2672,4.8821,4.6057,3.2265,2.9596,3.8318,3.7516,2.9142,3.3669,4.7237,4.8716,4.2898,4.9174,6.0633,5.6875,4.723,5.0324,5.6002,4.7135,3.5103,3.8402,4.3966,3.6189,3.009,3.9327,4.8088,4.3662,4.1948,5.4671,6.1905,5.4404,5.1111,5.9523,6.0863,4.8277,4.2354,4.9039,4.7735,3.6136,3.5539,4.6578,4.8296,4.1379,4.6415,6.0041,6.096,5.3398,5.7125,6.6131,6.0095,4.7768,4.8636,5.3024,4.3832,3.2727,3.6978,4.4661,3.9132,3.4604,4.4925,5.5373,5.0548,4.7715,5.8104,6.3228,5.2969,4.6302,5.223,5.1291,3.7036,3.0793,3.7608,3.7989,2.8404,2.9178,4.1875,4.5272,3.8907,4.3337,5.5899,5.5051,4.4914,4.6025,5.3041,4.5421,3.2109,3.328,3.9263,3.2219,2.3322,3.0216,4.0305,3.7088,3.3161,4.4141,5.4255,4.8556,4.3509,5.2036,5.5746,4.4264,3.5948,4.1177,4.1705,2.9249,2.5655,3.5775,3.9073,3.1918,3.4547,4.8669,5.2969,4.5738,4.8265,5.8773,5.6512,4.5275,4.4587,5.0876,4.385,3.1285,3.3236,4.1322,3.6827,3.0619,3.921,5.1147,4.8749,4.49,5.4835,6.34,5.5993,4.8673,5.4924,5.761,4.6311,3.8884,4.6006,4.9586,4.1088,4.0381,5.3504,5.9776,5.4374,5.7857,7.2257,7.6392,6.8666,6.9773,7.8916,7.5599,6.2648,6.1368,6.862,6.3304,5.241,5.5979,6.5344,6.2638,5.5801,6.3221,7.3001,6.6776,5.7325,6.1124,6.3798,5.0297,3.655,3.6516,3.4488,1.895,0.82111,1.246,1.3625,0.34162,-0.0031033,1.1141,1.6247,0.91518,1.0325,2.2614,2.457,1.4538,1.3524,2.1104,1.8129,0.60067,0.64393,1.6233,1.4489,0.72669,1.4208,2.7831,2.8282,2.3924,3.3721,4.5834,4.2009,3.4769,4.0451,4.5785,3.5534,2.5658,3.0698,3.4439,2.5252,2.0252,3.1056,3.8999,3.3722,3.4345,4.8349,5.4959,4.7521,4.6872,5.6805,5.6289,4.3316,3.9989,4.6704,4.3157,3.0599,3.0623,4.0415,3.8909,3.1791,3.8915,5.2355,5.2219,4.6013,5.2284,6.1192,5.4438,4.403,4.7003,5.082,4.0501,3.0657,3.6492,4.1995,3.5009,3.165,4.3495,5.2249,4.7103,4.6563,5.8511,6.2883,5.2665,4.8551,5.6182,5.4033,4.051,3.6863,4.4696,4.325,3.3451,3.6057,4.9467,5.1028,4.5263,5.1793,6.4491,6.2769,5.433,5.8595,6.5462,5.6895,4.5186,4.7619,5.2219,4.32,3.5084,4.2982,5.1592,4.6752,4.4783,5.733,6.5779,5.9366,5.6458,6.5501,6.6982,5.4466,4.8165,5.4,5.2459,3.9531,3.6859,4.59,4.6791,3.8881,4.2956,5.6651,5.8228,5.1226,5.6088,6.664,6.2352,5.1217,5.2363,5.7435,4.8564,3.6968,4.0554,4.7723,4.1438,3.5413,4.5774,5.5916,5.154,4.8728,5.9661,6.6503,5.8146,5.2934,6.0233,6.0813,4.7866,4.1555,4.7893,4.7439,3.6512,3.6092,4.827,5.1141,4.4289,4.833,6.1772,6.3132,5.4573,5.7217,6.555,5.9759,4.7212,4.7509,5.3018,4.5276,3.5097,4.0223,4.931,4.5765,4.1604,5.2855,6.352,5.9066,5.5228,6.4022,6.9442,5.8676,5.0934,5.6151,5.6447,4.3314,3.723,4.5563,4.7914,3.8768,4.0129,5.3278,5.7319,5.076,5.3923,6.61,6.5094,5.4167,5.4006,6.0344,5.3446,4.0207,4.0493,4.7499,4.1993,3.3636,4.0771,5.1996,4.9184,4.4515,5.4657,6.4138,5.8113,5.1241,5.7239,5.9652,4.6884,3.7426,4.162,4.2472,3.0457,2.529,3.5255,3.9531,3.1943,3.3812,4.6627,5.0116,4.1619,4.1924,5.1258,4.7999,3.5071,3.265,3.7899,3.1597,1.8787,2.0268,2.9017,2.5815,1.9109,2.7264,3.9224,3.6669,3.0949,3.8972,4.6577,3.7875,2.8562,3.2868,3.5593,2.3297,1.4437,2.0717,2.4103,1.5077,1.2474,2.4586,3.1701,2.5642,2.7202,3.944,4.2045,3.2245,3.0505,3.863,3.4689,2.0872,1.843,2.5474,2.1945,1.2018,1.6096,2.8044,2.721,2.2063,3.0816,4.2953,3.9885,3.2898,3.9279,4.5406,3.5854,2.5534,2.9642,3.2908,2.1913,1.4864,2.3771,3.0334,2.3834,2.311,3.6842,4.3673,3.7139,3.6511,4.6888,4.7789,3.5815,3.1974,3.8395,3.4481,2.0921,1.9525,2.8578,2.7048,1.9023,2.4753,3.8462,3.8498,3.2341,3.9696,4.9913,4.4618,3.4845,3.8291,4.2158,3.1694,2.0856,2.531,3.0111,2.1991,1.6993,2.7346,3.5969,3.1024,3.0009,4.1872,4.7054,3.778,3.4276,4.1725,4.0105,2.593,2.1196,2.7895,2.5122,1.3623,1.4406,2.5814,2.64,1.9596,2.5579,3.8507,3.7988,3.0414,3.5093,4.2856,3.5631,2.3899,2.6264,3.0623,2.1562,1.216,1.8348,2.5954,2.0017,1.7305,2.9427,3.8896,3.3816,3.1694,4.2814,4.6967,3.6364,3.1046,3.7711,3.6135,2.2596,1.8692,2.7247,2.718,1.8279,2.0948,3.476,3.7655,3.2251,3.7935,5.0177,4.8296,3.8624,4.0738,4.7271,3.9549,2.7369,2.9467,3.5423,2.8101,2.0985,2.9547,3.948,3.5629,3.3229,4.5164,5.3752,4.7542,4.2752,5.0836,5.2785,4.0217,3.3189,3.8597,3.7906,2.5788,2.3232,3.3444,3.5969,2.8735,3.2448,4.6274,4.8607,4.1157,4.4453,5.457,5.0388,3.8222,3.8455,4.3974,3.5656,2.3879,2.7293,3.4939,2.9889,2.4187,3.4299,4.557,4.2225,3.9007,4.9385,5.6277,4.7378,4.0331,4.6311,4.6893,3.3286,2.6249,3.3263,3.4664,2.5111,2.4846,3.7405,4.2125,3.5464,3.8859,5.2139,5.291,4.3323,4.37,5.1391,4.5731,3.2353,3.1997,3.8508,3.2425,2.2748,2.8749,3.9427,3.6592,3.2057,4.2502,5.3405,4.8875,4.3343,5.073,5.5857,4.5042,3.614,4.1404,4.2855,3.0818,2.5072,3.4075,3.7799,3.0234,3.115,4.4773,4.9512,4.2593,4.4015,5.5051,5.4157,4.2555,4.1248,4.7637,4.171,2.8828,2.958,3.7988,3.4106,2.6602,3.3833,4.626,4.4836,4.0406,4.9164,5.8691,5.2002,4.3929,4.9196,5.22,4.0457,3.0708,3.609,3.8887,2.8946,2.5184,3.5762,4.1741,3.5334,3.6516,4.9495,5.3432,4.5055,4.3957,5.2382,4.971,3.5914,3.2853,3.8999,3.3943,2.2276,2.4233,3.447,3.2794,2.6651,3.4421,4.7,4.4684,3.8128,4.4676,5.2128,4.3108,3.2858,3.6253,3.8921,2.7665,1.8773,2.5766,3.1039,2.3852,2.2192,3.4524,4.1946,3.593,3.5954,4.7861,5.0308,3.937,3.6045,4.3256,3.9785,2.598,2.3765,3.1604,2.911,1.9358,2.3575,3.6448,3.6432,3.1037,3.8814,5.0716,4.6891,3.8255,4.2523,4.8366,3.8883,2.7565,3.1321,3.5662,2.6489,2.0026,2.9441,3.7479,3.2234,3.0822,4.3603,5.0744,4.3473,4.1531,5.0789,5.1271,3.8431,3.3723,4.0038,3.7468,2.507,2.4028,3.3807,3.3646,2.6518,3.2011,4.5529,4.6107,3.9456,4.5647,5.5298,4.9734,3.8734,4.0658,4.4984,3.546,2.4511,2.9397,3.5921,2.9234,2.48,3.598,4.5935,4.0848,3.9453,5.0976,5.6329,4.6679,4.1539,4.8903,4.7816,3.3893,2.8285,3.5124,3.4163,2.3869,2.4821,3.6822,3.9055,3.2702,3.8173,5.119,5.0712,4.1709,4.4451,5.1954,4.4719,3.2497,3.3574,3.866,2.9922,2.0558,2.7115,3.5585,3.0919,2.7538,3.9081,4.8706,4.2941,3.9396,4.8671,5.1998,4.0272,3.3343,3.9199,3.7833,2.4852,2.0586,2.9628,3.1259,2.2671,2.5261,3.922,4.2638,3.6249,4.0291,5.1588,4.9801,3.9274,4.0499,4.6535,3.903,2.637,2.8609,3.6035,2.9947,2.2703,3.1218,4.1392,3.8362,3.5038,4.6091,5.4899,4.7655,4.1567,4.8407,5.006,3.7107,2.9309,3.5052,3.5984,2.4578,2.2204,3.3502,3.7836,3.0862,3.428,4.7945,5.0535,4.224,4.3578,5.2326,4.7767,3.3908,3.2835,3.7518,3.0003,1.8277,2.131,3.0293,2.6454,2.0982,3.0021,4.127,3.8475,3.4102,4.2865,4.9422,4.0057,3.1905,3.6991,3.8653,2.6137,1.9195,2.7284,3.0611,2.2195,2.2302,3.5319,4.1375,3.4729,3.6961,4.9255,4.9914,3.9326,3.8365,4.5496,3.9595,2.5379,2.4876,3.1948,2.7393,1.8036,2.3388,3.491,3.2929,2.8134,3.7503,4.839,4.3662,3.6389,4.2619,4.7212,3.5969,2.6152,3.077,3.2987,2.1986,1.6128,2.6071,3.1676,2.561,2.6188,3.9998,4.6369,3.8948,3.9372,4.9736,4.8694,3.6295,3.3725,4.0918,3.6502,2.454,2.6486,3.6916,3.5851,3.0045,3.865,5.2895,5.3239,4.9752,5.8668,6.8668,6.3084,5.4788,5.9714,6.3763,5.303,4.3546,4.9095,5.2776,4.3554,3.9434,4.9871,5.5889,4.7857,4.5496,5.5146,5.5846,4.2285,3.5981,3.9718,3.3107,1.5492,0.82124,1.132,0.41864,-1.0855,-1.1338,-0.23615,-0.38035,-1.0407,-0.29852,1.0224,0.9442,0.34257,1.0456,1.9206,1.2363,0.25709,0.72889,1.2734,0.36542,-0.3316,0.56002,1.4197,0.93984,0.88389,2.3175,3.2408,2.8022,2.8102,4.0097,4.3517,3.3021,2.9135,3.6159,3.3975,2.1057,1.9263,2.8859,2.8639,2.0553,2.5368,3.8931,4.0699,3.5169,4.144,5.2895,4.9718,3.9776,4.2572,4.7952,3.8788,2.675,3.0046,3.5605,2.753,2.1426,3.0659,3.9415,3.4691,3.2972,4.5105,5.2042,4.4243,4.0067,4.8181,4.8638,3.5754,2.9533,3.6214,3.4613,2.3009,2.2114,3.3441,3.5448,2.8527,3.3851,4.7765,4.8679,4.1406,4.5421,5.4423,4.8968,3.7223,3.8379,4.3641,3.5324,2.4507,2.9632,3.7604,3.2363,2.8124,3.8734,4.8884,4.464,4.151,5.1894,5.7014,4.7336,4.0958,4.7174,4.7109,3.3729,2.8361,3.605,3.6719,2.713,2.8192,4.1178,4.457,3.8201,4.2626,5.4891,5.4038,4.3897,4.5003,5.2308,4.527,3.2246,3.2826,3.8512,3.1463,2.2562,2.9452,3.9243,3.573,3.209,4.2774,5.259,4.7179,4.2128,5.0064,5.3477,4.1697,3.3378,3.8895,3.9126,2.6958,2.2481,3.2304,3.5304,2.8145,3.1062,4.5179,4.9183,4.1947,4.447,5.4973,5.2415,4.0001,3.9309,4.5594,3.8857,2.6873,2.8819,3.7194,3.2695,2.619,3.5069,4.6709,4.4014,3.9868,4.9798,5.8359,5.0654,4.333,4.9284,5.138,3.8905,3.0595,3.7126,3.9237,2.9563,2.768,4.0212,4.5601,3.9902,4.2501,5.6311,5.9563,5.0661,5.0884,5.9144,5.5238,4.1403,3.9533,4.5609,3.9703,2.8804,3.2955,4.3194,4.107,3.5694,4.5453,5.7573,5.4566,4.8919,5.623,6.2708,5.3304,4.3069,4.7718,4.9202,3.7175,2.9362,3.6829,4.1213,3.305,3.2235,4.5161,5.0849,4.4335,4.4625,5.5738,5.5933,4.4431,4.1655,4.7766,4.2443,2.8266,2.6351,3.3796,2.9411,1.9549,2.4142,3.5417,3.4106,2.7986,3.6021,4.6079,4.0199,3.1197,3.541,3.9568,2.8434,1.7382,2.1539,2.4397,1.4035,0.84435,1.7779,2.4546,1.8386,1.8126,3.0661,3.5802,2.7481,2.5363,3.3827,3.2135,1.8279,1.4069,2.0194,1.6057,0.34948,0.41006,1.4475,1.3551,0.67212,1.3256,2.6106,2.5379,1.8584,2.4851,3.3462,2.6996,1.6584,1.9553,2.3366,1.2457,0.26089,0.84403,1.4232,0.69491,0.35855,1.5427,2.4177,1.9027,1.8483,3.0134,3.4209,2.428,2.0455,2.7495,2.5636,1.2402,0.90438,1.6579,1.5423,0.59123,0.88079,2.1921,2.3478,1.7709,2.4527,3.6929,3.5496,2.676,3.0728,3.7591,2.902,1.7307,1.9736,2.4918,1.5895,0.80679,1.6549,2.5154,2.0603,1.8924,3.1467,4.0204,3.3788,3.0876,4.0501,4.2564,3.063,2.4325,3.0742,2.8904,1.5972,1.3589,2.3213,2.41,1.6186,1.9964,3.3947,3.6107,2.9686,3.4545,4.5386,4.1387,2.9955,3.139,3.6751,2.7876,1.5983,1.8687,2.4974,1.7805,1.1777,2.1548,3.1393,2.672,2.4198,3.5127,4.2258,3.3604,2.7802,3.4512,3.5087,2.1844,1.4943,2.157,2.1112,0.98888,0.91721,2.1053,2.392,1.7064,2.1394,3.4832,3.5896,2.7333,2.9388,3.7424,3.1922,1.9078,1.9371,2.517,1.7424,0.69478,1.2364,2.174,1.7605,1.3148,2.3809,3.4763,3.0598,2.6464,3.5546,4.0963,3.0779,2.3033,2.8539,2.8832,1.6281,1.0486,1.8815,2.1163,1.2307,1.337,2.6808,3.1432,2.5162,2.8615,4.1081,4.0657,3.002,2.9855,3.6189,2.9581,1.6337,1.7206,2.4501,1.8992,1.0631,1.7469,2.8691,2.5875,2.1788,3.2219,4.2283,3.6547,3.0551,3.713,4.0419,2.8233,1.9358,2.4426,2.5861,1.4722,1.0723,2.1563,2.6422,1.9708,2.1867,3.5851,3.9922,3.23,3.3187,4.3103,4.0134,2.7495,2.5656,3.1488,2.5769,1.2955,1.5311,2.4642,2.2023,1.5607,2.4051,3.6593,3.4035,2.8604,3.721,4.5397,3.757,2.8546,3.2849,3.5278,2.3271,1.4701,2.1563,2.5238,1.6209,1.3896,2.6297,3.2236,2.6174,2.7145,3.9671,4.2567,3.2469,3.102,3.8555,3.4318,2.0497,1.8344,2.5385,2.0973,1.0458,1.4239,2.589,2.5346,2.0195,2.8652,4.0492,3.7128,2.9845,3.5636,4.1467,3.1912,2.1295,2.54,2.8955,1.7956,1.0904,1.9808,2.6367,2.0157,1.943,3.2865,3.9692,3.2862,3.2524,4.2897,4.3795,3.1818,2.7973,3.4977,3.106,1.7789,1.6682,2.5732,2.4492,1.617,2.219,3.5017,3.4756,2.8596,3.5948,4.6455,4.1156,3.1672,3.5408,3.9565,2.8805,1.767,2.2121,2.6919,1.7916,1.2622,2.3265,3.1299,2.6057,2.5039,3.7485,4.2956,3.3972,3.1051,3.8789,3.7459,2.3574,1.8543,2.5532,2.2755,1.096,1.1447,2.2266,2.3141,1.6334,2.2607,3.5825,3.5302,2.7725,3.2401,4.016,3.2932,2.1197,2.3559,2.8207,1.885,0.91527,1.5044,2.2647,1.6413,1.3406,2.5231,3.4404,2.9027,2.7195,3.802,4.1877,3.0977,2.507,3.1731,3.0446,1.7196,1.2996,2.1255,2.1185,1.2281,1.4946,2.7584,2.9889,2.331,2.8698,4.0937,3.8759,2.9671,3.1781,3.8018,2.9414,1.6938,1.9326,2.4985,1.7367,0.96622,1.7929,2.8151,2.4004,2.1601,3.3533,4.2411,3.5905,3.1697,3.9778,4.1724,2.9739,2.3,2.8992,2.8298,1.6177,1.3617,2.3827,2.6349,1.8819,2.1942,3.5765,3.8388,3.1228,3.4813,4.4928,4.1036,2.916,2.939,3.4906,2.6585,1.4804,1.8216,2.6151,2.1098,1.5393,2.5209,3.6184,3.2251,2.8736,3.9112,4.6294,3.7684,3.0634,3.6611,3.6897,2.358,1.6247,2.2672,2.3777,1.3635,1.2781,2.5044,2.9175,2.2805,2.5903,3.8888,3.9949,3.0358,3.0733,3.8421,3.2172,1.8791,1.8725,2.494,1.8561,0.85879,1.4,2.4382,2.1544,1.6713,2.6569,3.7763,3.323,2.7988,3.5665,4.0496,2.9678,2.0773,2.5741,2.631,1.427,0.82284,1.6936,2.0656,1.2796,1.4002,2.7915,3.3237,2.6315,2.8027,3.906,3.8163,2.6266,2.4663,3.0756,2.512,1.1942,1.269,2.0803,1.6918,0.94109,1.6932,2.9356,2.7636,2.3204,3.2252,4.2362,3.6256,2.8473,3.4324,3.7617,2.6165,1.6706,2.2084,2.4586,1.4642,1.0878,2.2038,2.8308,2.2191,2.3371,3.6932,4.116,3.278,3.2265,4.098,3.8305,2.48,2.2322,2.9344,2.4871,1.3495,1.5741,2.6855,2.5761,2.0202,2.9141,4.1717,3.9984,3.4305,4.1436,4.8885,4.0449,3.0195,3.3588,3.6547,2.5288,1.6979,2.3969,2.8947,2.1171,1.9216,3.1544,3.8964,3.2945,3.3259,4.5164,4.7608,3.6667,3.3047,3.9376,3.5903,2.1509,1.8412,2.5956,2.258,1.2532,1.6161,2.8153,2.8133,2.215,2.9632,4.1238,3.7703,2.8479,3.2158,3.7705,2.7341,1.5727,1.8602,2.2062,1.2299,0.52482,1.4075,2.1524,1.5984,1.5155,2.764,3.4778,2.7505,2.5267,3.423,3.4124,2.1281,1.657,2.2883,2.031,0.76166,0.65724,1.6642,1.6771,0.96406,1.4838,2.8353,2.8929,2.2275,2.8171,3.7819,3.2253,2.1836,2.3757,2.8667,1.8848,0.78959,1.19,1.8129,1.1146,0.64171,1.7302,2.6961,2.275,2.1353,3.3459,3.9103,2.9744,2.4894,3.2256,3.1459,1.7826,1.2509,1.9638,1.8676,0.80854,0.9328,2.162,2.4436,1.8373,2.4135,3.8028,3.8134,3.0008,3.4212,4.2592,3.6819,2.5767,2.8306,3.5147,2.7872,1.997,2.799,3.8508,3.5598,3.3972,4.7563,5.8944,5.552,5.373,6.4175,6.8671,5.7822,5.089,5.6451,5.479,4.0635,3.5488,4.3062,4.2347,3.1413,3.0778,4.0926,3.9947,2.9161,2.8513,3.5707,2.8937,1.3427,0.96686,1.1308,-0.088705,-1.7357,-1.893,-1.5022,-2.3163,-3.1288,-2.3068,-1.1724,-1.3878,-1.6033,-0.41026,0.58751,0.0093434,-0.42389,0.43566,0.77646,-0.34323,-1.0061,-0.22692,0.012518,-0.95257,-1.0729,0.23235,0.78277,0.26088,0.77822,2.2618,2.6377,1.9252,2.1466,3.1091,2.7995,1.5891,1.5987,2.2134,1.5495,0.46454,0.88488,1.8708,1.5453,1.0857,2.1066,3.2899,3.0101,2.5726,3.478,4.1628,3.2261,2.4106,2.8897,2.9971,1.7747,1.0509,1.801,2.1042,1.233,1.2143,2.5157,3.0919,2.4563,2.7086,3.9964,4.0913,3.0323,2.9067,3.6489,3.1465,1.8125,1.7914,2.4983,2.0426,1.1067,1.671,2.8523,2.654,2.1743,3.1109,4.1994,3.7265,3.0575,3.7389,4.2273,3.1614,2.2087,2.6704,2.9211,1.8208,1.2349,2.1996,2.76,2.0652,2.1228,3.4743,4.0526,3.281,3.2353,4.2422,4.1671,2.8977,2.6112,3.2717,2.7713,1.5163,1.5936,2.5191,2.3246,1.5973,2.3403,3.6182,3.4767,2.9519,3.7261,4.6381,3.9622,2.986,3.3905,3.7366,2.6045,1.6266,2.1813,2.6078,1.7147,1.3318,2.4925,3.2113,2.6423,2.6989,3.986,4.4074,3.4319,3.1822,3.9952,3.7733,2.3925,2.0452,2.7366,2.4039,1.3098,1.5835,2.7154,2.7175,2.1448,2.9161,4.1782,4.0119,3.2051,3.7614,4.4897,3.6295,2.5329,2.8287,3.1972,2.1426,1.3282,2.0731,2.7862,2.1889,1.957,3.2439,4.0499,3.4646,3.3259,4.3494,4.574,3.3485,2.8426,3.4861,3.209,1.8292,1.5031,2.4039,2.3231,1.4557,1.8785,3.2639,3.4111,2.8287,3.4849,4.6302,4.2831,3.2887,3.5974,4.1353,3.2186,2.0147,2.3734,2.8705,2.0629,1.423,2.4046,3.368,2.9247,2.7527,3.9365,4.63,3.8207,3.4029,4.1848,4.201,2.8539,2.2609,2.8702,2.6513,1.4029,1.2546,2.3285,2.4704,1.7489,2.2225,3.5552,3.6171,2.8018,3.1152,3.9273,3.2938,2.0312,2.088,2.5262,1.6064,0.46595,0.89042,1.5995,0.98738,0.47545,1.4776,2.4925,2.0093,1.7255,2.793,3.3342,2.3076,1.611,2.2031,2.1086,0.74117,0.14556,0.85572,0.86386,-0.15385,-0.10635,1.1628,1.4726,0.80619,1.2192,2.4455,2.3308,1.3458,1.427,2.0987,1.3947,0.062949,0.091494,0.6892,-0.015843,-0.90614,-0.21727,0.76167,0.38085,-0.012525,1.0849,2.0958,1.5838,1.1078,1.9306,2.2717,1.0936,0.29074,0.87161,0.89455,-0.3224,-0.74093,0.24117,0.62894,-0.087118,0.14587,1.5281,1.899,1.1753,1.4274,2.4776,2.2216,1.0094,0.96935,1.627,0.9238,-0.30403,-0.1095,0.69855,0.27777,-0.43151,0.42698,1.5908,1.3211,0.96502,1.9579,2.8138,2.1018,1.3693,1.9352,2.1154,0.86767,0.036517,0.63089,0.87115,-0.12566,-0.34343,0.85105,1.3605,0.73188,0.96235,2.2846,2.5804,1.6607,1.6829,2.5088,2.0887,0.73441,0.5765,1.2133,0.6518,-0.46748,-0.14043,0.88336,0.6708,0.13303,1.0796,2.2621,1.8734,1.25,2.0103,2.6579,1.6881,0.72302,1.2171,1.3946,0.19177,-0.50179,0.30337,0.80023,0.01315,-0.0098574,1.3412,1.9684,1.3462,1.4337,2.5741,2.652,1.5018,1.2533,1.8936,1.3905,0.031222,-0.10185,0.73047,0.40904,-0.46018,0.08691,1.3315,1.2882,0.79324,1.6259,2.7194,2.2192,1.4068,1.8865,2.3315,1.2473,0.22983,0.704,1.0482,0.070501,-0.40083,0.64983,1.3556,0.76883,0.80133,2.1133,2.7151,1.9708,1.8175,2.7517,2.6409,1.3138,0.95132,1.6223,1.2671,0.039978,0.12974,1.167,1.1331,0.47933,1.1327,2.4469,2.3741,1.6944,2.321,3.1527,2.4181,1.3768,1.6443,1.9962,0.93443,-0.021181,0.59114,1.1409,0.41249,0.10532,1.3186,2.1935,1.6784,1.6239,2.7889,3.2256,2.2325,1.8499,2.5539,2.3386,0.92713,0.56191,1.2861,1.1117,0.10196,0.36211,1.5561,1.6825,1.0761,1.7286,2.9686,2.7959,1.9222,2.3189,2.9465,2.0893,0.91789,1.1314,1.5616,0.65916,-0.15293,0.63644,1.4676,0.98307,0.81506,2.04,2.8843,2.2718,2.0392,2.9429,3.1492,1.9556,1.3543,1.9667,1.7827,0.48946,0.1925,1.1547,1.214,0.42253,0.85885,2.1985,2.3851,1.6843,2.1701,3.1955,2.7955,1.6522,1.7663,2.3024,1.4148,0.25467,0.61279,1.3,0.64165,0.097268,1.1036,2.1466,1.7378,1.4855,2.6076,3.3206,2.4845,1.9335,2.6336,2.7204,1.396,0.73508,1.3977,1.4104,0.28798,0.24551,1.3749,1.6908,1.0052,1.4088,2.7232,2.8002,1.9731,2.2371,3.0699,2.5489,1.2645,1.323,1.9027,1.1281,0.080372,0.56331,1.4129,0.99936,0.52424,1.5903,2.6563,2.2105,1.8262,2.7637,3.2759,2.2282,1.4243,1.9748,2.0039,0.6902,0.11062,0.94344,1.1781,0.29242,0.36944,1.6839,2.1168,1.4897,1.8057,3.0229,2.9512,1.858,1.8707,2.5041,1.8139,0.48949,0.51765,1.2178,0.66682,-0.14006,0.54367,1.6658,1.4428,1.034,2.077,3.054,2.4804,1.7928,2.4213,2.7502,1.5315,0.6439,1.18,1.3233,0.20933,-0.19064,0.83479,1.3206,0.64914,0.86498,2.2339,2.6703,1.9081,2.026,3.0468,2.7792,1.4859,1.3019,1.885,1.2837,0.090183,0.26712,1.2002,0.87964,0.2379,1.0529,2.2486,2.0512,1.5374,2.3979,3.1873,2.4045,1.4728,1.903,2.2044,1.0037,0.17583,0.86203,1.2001,0.35576,0.15369,1.3938,2.1048,1.4985,1.6541,2.9068,3.1962,2.2157,2.0414,2.7949,2.4004,1.0183,0.80293,1.4776,1.095,0.043393,0.48006,1.6451,1.5906,1.0755,1.9504,3.1344,2.7687,2.011,2.5901,3.1438,2.1296,1.0386,1.3612,1.5994,0.4995,-0.20578,0.62593,1.2525,0.63145,0.52939,1.8729,2.5556,1.8432,1.78,2.8173,2.8485,1.6214,1.2369,1.8786,1.4868,0.15969,0.048996,0.9832,0.82987,0.026968,0.57026,1.9115,1.8854,1.2694,1.9752,2.9965,2.4666,1.4889,1.8332,2.2488,1.2021,0.088553,0.50424,0.95471,0.11298,-0.44578,0.61849,1.4511,0.92691,0.82506,2.0403,2.6167,1.7475,1.4261,2.1999,2.1254,0.76618,0.29239,0.96192,0.7135,-0.37815,-0.3002,0.86954,0.98633,0.36416,0.9914,2.3132,2.2902,1.5617,2.0293,2.8345,2.1409,0.96739,1.1743,1.5805,0.64474,-0.35437,0.29329,1.0536,0.45946,0.10009,1.2826,2.1999,1.6915,1.4789,2.5613,2.947,1.8863,1.2956,1.9324,1.7745,0.42026,0.00017045,0.82606,0.81898,-0.071399,0.19512,1.5467,1.8065,1.1779,1.746,2.9698,2.752,1.7846,1.9955,2.6778,1.876,0.62834,0.89643,1.4331,0.70054,-0.040702,0.78594,1.7202,1.3055,1.0066,2.1705,2.9997,2.3197,1.8697,2.6484,2.7844,1.5273,0.82414,1.4232,1.3539,0.14172,-0.11425,0.93597,1.1881,0.46442,0.83532,2.1883,2.4213,1.676,2.0345,3.0166,2.5688,1.3812,1.4042,1.9851,1.153,0.0042245,0.37464,1.1389,0.60427,0.033766,0.98601,2.0835,1.6609,1.3094,2.3176,2.9772,2.087,1.3527,1.9504,2.0083,0.64724,-0.056724,0.61502,0.7841,-0.20083,-0.22762,1.0573,1.4997,0.86261,1.231,2.5295,2.6649,1.7058,1.7726,2.5707,2.0337,0.72485,0.65967,1.2811,0.67251,-0.32476,0.24573,1.3133,1.0588,0.60493,1.5905,2.7099,2.2566,1.7031,2.4708,2.9832,1.9014,1.0109,1.4492,1.5353,0.30204,-0.24354,0.6858,1.0872,0.33041,0.42169,1.7544,2.2281,1.5358,1.6485,2.7518,2.6328,1.4137,1.2242,1.8042,1.1527,-0.19441,-0.17816,0.60379,0.18603,-0.62326,0.12886,1.3127,1.1407,0.66817,1.5437,2.4961,1.8562,1.078,1.6044,1.9338,0.75924,-0.21597,0.32194,0.63071,-0.33437,-0.65221,0.46384,1.1201,0.53771,0.68502,2.0119,2.4347,1.6259,1.5452,2.4167,2.1493,0.82804,0.58028,1.2824,0.83519,-0.33173,-0.13636,0.91644,0.7778,0.13399,0.94,2.1684,1.9365,1.2807,1.9352,2.6802,1.8365,0.8112,1.1798,1.4756,0.37906,-0.51038,0.18863,0.71574,-0.0032174,-0.16945,1.122,1.8934,1.2914,1.2936,2.4841,2.7285,1.6344,1.3311,2.0518,1.7925,0.49963,0.33639,1.2666,1.1341,0.27585,0.8145,2.2188,2.422,2.0581,2.982,4.3478,4.1701,3.4527,4.0258,4.727,3.8371,2.8222,3.2269,3.6608,2.7725,2.0967,2.9501,3.6364,2.8774,2.5309,3.545,3.9073,2.7992,2.1653,2.5928,2.1135,0.33114,-0.66722,-0.47539,-1.2306,-2.9687,-3.4833,-2.8571,-3.1371,-4.1138,-3.682,-2.3304,-2.2435,-2.7917,-2.0848,-0.94421,-1.3543,-2.3081,-1.9108,-1.2734,-2.1088,-3.0867,-2.4811,-1.7118,-2.2049,-2.5313,-1.267,-0.21313,-0.51701,-0.51016,0.78836,1.4992,0.68055,0.2542,0.99046,0.96935,-0.27666,-0.66187,0.16829,0.18926,-0.78183,-0.62823,0.60104,0.85336,0.27645,0.88196,2.242,2.2233,1.3522,1.6555,2.4349,1.7405,0.48881,0.65486,1.1926,0.37716,-0.55944,0.15469,1.0601,0.62263,0.31363,1.497,2.4886,1.9119,1.5572,2.4845,2.8464,1.7321,1.039,1.6537,1.6342,0.36519,-0.061572,0.87169,1.0346,0.20494,0.49304,1.8594,2.2011,1.562,1.9953,3.1542,2.9167,1.8345,1.9275,2.5309,1.7509,0.48482,0.6792,1.363,0.78337,0.11737,0.998,2.1032,1.7999,1.4381,2.5139,3.3653,2.6407,2.0024,2.657,2.8514,1.5559,0.80523,1.4087,1.4724,0.39019,0.15271,1.2823,1.7156,1.018,1.301,2.6381,2.8676,2.038,2.1716,3.0756,2.6488,1.3213,1.1845,1.7406,1.0182,-0.095976,0.29513,1.2518,0.92636,0.37898,1.3414,2.4954,2.1571,1.6904,2.5665,3.2221,2.2855,1.3822,1.8613,1.9981,0.7464,0.022753,0.77289,1.0469,0.11716,0.098483,1.4,1.9762,1.3407,1.5931,2.8516,2.976,1.917,1.8794,2.5924,2.09,0.72685,0.64717,1.3249,0.83994,-0.15449,0.38062,1.5327,1.3638,0.91343,1.8794,2.968,2.4951,1.8262,2.4784,2.9376,1.8718,0.9192,1.4395,1.6903,0.59009,0.03352,1.0277,1.5881,0.95203,1.0097,2.3906,2.969,2.2267,2.2983,3.3053,3.2302,1.9609,1.6745,2.3058,1.8055,0.52125,0.5986,1.5535,1.3298,0.60255,1.3164,2.5943,2.5115,1.9576,2.7025,3.6146,2.9388,1.9333,2.3087,2.6255,1.4642,0.48644,1.0412,1.4678,0.57477,0.19203,1.3528,2.0424,1.4148,1.4423,2.7001,3.0631,2.0877,1.8087,2.5339,2.2242,0.78495,0.37913,1.0414,0.65016,-0.53178,-0.31656,0.78609,0.70038,0.03993,0.75272,1.9856,1.7023,0.92478,1.3934,2.0338,1.0858,-0.12788,0.10946,0.44878,-0.63506,-1.4787,-0.76291,-0.13767,-0.79342,-1.0545,0.17388,0.92136,0.27761,0.080433,1.0747,1.2115,-0.043221,-0.54901,0.036031,-0.24097,-1.5914,-1.8588,-1.0165,-1.1265,-2.0524,-1.6588,-0.36119,-0.27241,-0.88407,-0.2863,0.82981,0.42414,-0.59946,-0.31992,0.18875,-0.72779,-1.9316,-1.6021,-1.0463,-1.8245,-2.4057,-1.4532,-0.51906,-0.96221,-1.1342,0.079048,0.77265,-0.036571,-0.45426,0.38635,0.43197,-0.88573,-1.4493,-0.78134,-0.9122,-2.0433,-2.1329,-1.0002,-0.79963,-1.4625,-0.93019,0.46122,0.55258,-0.14549,0.28523,1.2147,0.63985,-0.53478,-0.41922,0.10698,-0.78344,-1.8359,-1.3527,-0.55557,-1.109,-1.5622,-0.47207,0.54293,0.11847,-0.16524,0.87308,1.4729,0.50506,-0.10348,0.54736,0.54086,-0.79718,-1.3634,-0.62381,-0.58625,-1.5159,-1.3804,-0.08191,0.28661,-0.32106,0.1507,1.4357,1.409,0.39486,0.56404,1.2359,0.5027,-0.79965,-0.71239,-0.14386,-0.81948,-1.7097,-1.05,-0.04159,-0.39299,-0.78624,0.28206,1.2637,0.72257,0.21737,1.0403,1.3815,0.20355,-0.59916,-0.047463,-0.024391,-1.2412,-1.6303,-0.67739,-0.37738,-1.1519,-0.88949,0.49291,0.86392,0.111,0.39257,1.4429,1.187,-0.025019,-0.064979,0.56351,-0.11026,-1.338,-1.1433,-0.30583,-0.72647,-1.4063,-0.5184,0.64559,0.37603,-0.038555,0.92514,1.7519,0.95216,0.16116,0.6979,0.90751,-0.34004,-1.1125,-0.45936,-0.21896,-1.2156,-1.404,-0.20936,0.32952,-0.26966,-0.039048,1.2541,1.5207,0.60114,0.59418,1.4788,1.0881,-0.23673,-0.3945,0.2424,-0.31891,-1.4088,-1.023,0.030259,-0.15287,-0.71979,0.16831,1.351,0.99173,0.42703,1.1581,1.7766,0.80694,-0.18725,0.24837,0.51395,-0.63018,-1.3236,-0.51829,-0.021287,-0.72033,-0.74319,0.608,1.2354,0.61332,0.70094,1.8415,1.9782,0.79877,0.49189,1.103,0.6,-0.72979,-0.80413,-0.00095541,-0.32223,-1.1913,-0.61477,0.60063,0.5575,0.004126,0.83689,1.9013,1.4013,0.58896,1.0396,1.4847,0.40061,-0.64597,-0.20094,0.14346,-0.83413,-1.3346,-0.2838,0.45146,-0.13519,-0.16113,1.1217,1.6651,0.83304,0.70915,1.6142,1.4743,0.088772,-0.30287,0.33897,-0.045406,-1.2723,-1.241,-0.23287,-0.2959,-0.97883,-0.29605,1.0183,0.94571,0.32476,0.98081,1.8713,1.1661,0.09566,0.39266,0.77399,-0.2876,-1.2723,-0.68916,-0.080654,-0.80889,-1.1745,0.0096621,0.88473,0.36977,0.31544,1.5099,1.9174,0.95388,0.54213,1.2463,1.0018,-0.38017,-0.80382,-0.050194,-0.22436,-1.2047,-0.97367,0.3084,0.4056,-0.20054,0.45204,1.6923,1.4904,0.58756,0.92583,1.6122,0.72592,-0.50393,-0.29023,0.19871,-0.70356,-1.4862,-0.66735,0.164,-0.37897,-0.6347,0.56108,1.4056,0.79329,0.47291,1.4354,1.6125,0.38987,-0.21124,0.40129,0.15892,-1.1635,-1.4603,-0.52716,-0.43839,-1.2297,-0.79322,0.63451,0.82122,0.17927,0.6945,1.7787,1.3789,0.23578,0.37931,0.88625,-0.030464,-1.249,-0.91997,-0.26191,-0.92006,-1.4936,-0.48703,0.52684,0.14754,-0.046007,1.1056,1.8188,0.95349,0.40267,1.103,1.1607,-0.19288,-0.85358,-0.16147,-0.14858,-1.2415,-1.3131,-0.095686,0.24972,-0.37715,0.026672,1.3999,1.5357,0.65012,0.91431,1.7473,1.1386,-0.14564,-0.086984,0.46369,-0.3108,-1.3583,-0.8166,0.12109,-0.29228,-0.73792,0.35759,1.4531,1.0075,0.5941,1.5025,2.0442,0.9967,0.19291,0.7143,0.71437,-0.59917,-1.1786,-0.37486,-0.13996,-0.9962,-0.8897,0.45422,0.94594,0.31908,0.6645,1.8526,1.8104,0.74672,0.73033,1.3639,0.70318,-0.65034,-0.65128,0.019781,-0.56031,-1.367,-0.68308,0.43924,0.18712,-0.19217,0.85103,1.8283,1.2548,0.56738,1.2548,1.5838,0.3946,-0.4928,0.014173,0.099137,-1.044,-1.473,-0.4474,0.038564,-0.63266,-0.44591,0.89396,1.3012,0.50989,0.5401,1.5025,1.2351,-0.087284,-0.27102,0.34155,-0.25953,-1.4822,-1.2757,-0.31317,-0.60421,-1.2458,-0.37192,0.8532,0.6561,0.14247,0.97386,1.7049,0.89297,0.020037,0.45043,0.69348,-0.53633,-1.364,-0.67756,-0.33923,-1.2127,-1.4146,-0.17427,0.53695,-0.039846,0.086706,1.3395,1.5706,0.56103,0.41621,1.1992,0.83419,-0.54772,-0.79213,-0.058645,-0.44104,-1.4631,-1.0556,0.10969,-0.0031806,-0.57667,0.29845,1.4827,1.1757,0.44755,1.0268,1.5808,0.62539,-0.40684,-0.054743,0.27162,-0.79878,-1.4453,-0.58403,0.072094,-0.54879,-0.59203,0.7517,1.4932,0.81029,0.77663,1.8141,1.8455,0.61868,0.20509,0.847,0.45544,-0.87146,-1.0112,-0.10612,-0.25923,-1.0912,-0.5184,0.79377,0.79721,0.23995,0.94598,1.9676,1.4086,0.43109,0.74627,1.1621,0.11559,-0.96839,-0.52318,-0.043192,-0.8847,-1.4432,-0.40805,0.42481,-0.12847,-0.20081,1.0733,1.6499,0.78092,0.45974,1.263,1.1302,-0.22883,-0.70239,-0.0033329,-0.22223,-1.3722,-1.2941,-0.1534,-0.036384,-0.68763,-0.030868,1.3204,1.2977,0.51084,0.94935,1.7548,1.0322,-0.14117,0.06592,0.50165,-0.49244,-1.462,-0.81413,-0.053612,-0.64749,-1.0066,0.17615,1.0644,0.55613,0.34382,1.3972,1.7831,0.72263,0.22002,0.91563,0.78728,-0.56673,-0.98659,-0.10187,-0.079418,-0.96957,-0.70281,0.61972,0.90904,0.33929,0.87829,2.073,1.8555,0.85896,1.0702,1.7234,0.92182,-0.32561,-0.11587,0.45029,-0.34058,-1.1109,-0.3133,0.62123,0.17748,-0.12125,1.0136,1.8723,1.1633,0.71351,1.5511,1.7752,0.45975,-0.24318,0.32685,0.22843,-1.0128,-1.3271,-0.30593,-0.14141,-0.89418,-0.55233,0.83021,1.0635,0.31838,0.64783,1.6302,1.2119,-0.034035,-0.010817,0.51173,-0.29084,-1.4393,-1.098,-0.33351,-0.83856,-1.4088,-0.42704,0.6707,0.3069,-0.015054,0.99346,1.6826,0.79259,0.087828,0.68581,0.77322,-0.55827,-1.2913,-0.61929,-0.50855,-1.4639,-1.5198,-0.26391,0.14941,-0.48739,-0.11871,1.1507,1.2571,0.26893,0.33595,1.0757,0.48036,-0.79893,-0.83456,-0.21285,-0.87981,-1.8475,-1.3061,-0.2676,-0.55114,-1.0047,0.010439,1.1008,0.61843,0.065163,0.80386,1.2872,0.23495,-0.68458,-0.18751,-0.04247,-1.1876,-1.6744,-0.68617,-0.13808,-0.74808,-0.51006,1.028,1.6777,1.1322,1.4795,2.7588,2.8452,1.8314,1.8179,2.6033,2.1571,0.92745,1.0904,1.9898,1.6602,0.99769,1.8087,3.0221,2.8503,2.3195,3.1073,3.8842,3.0102,1.91,2.0558,1.946,0.33228,-1.0821,-1.0127,-1.231,-2.6646,-3.5095,-2.8912,-2.6741,-3.6957,-3.8997,-2.8656,-2.6769,-3.6611,-3.7709,-2.8112,-2.9612,-4.1943,-4.3246,-3.5343,-3.8055,-4.7671,-4.3664,-3.1082,-3.0708,-3.5093,-2.5858,-1.2107,-1.2958,-1.7756,-0.94505,-0.024006,-0.69161,-1.5409,-1.0255,-0.58291,-1.6206,-2.3633,-1.5761,-0.96087,-1.6503,-1.7576,-0.40729,0.39361,-0.14944,-0.088439,1.1316,1.435,0.39972,0.096635,0.81768,0.47069,-0.90978,-1.102,-0.28876,-0.50886,-1.3961,-0.9451,0.31298,0.34066,-0.22804,0.49109,1.652,1.3281,0.4646,0.89144,1.4465,0.49819,-0.60425,-0.25787,0.14698,-0.77036,-1.4459,-0.56291,0.1823,-0.37138,-0.45397,0.85347,1.5969,0.89918,0.70499,1.6602,1.7085,0.39514,-0.13419,0.49738,0.21118,-1.0872,-1.1913,-0.12544,-0.11219,-0.82494,-0.2463,1.1055,1.1927,0.52766,1.1176,2.112,1.585,0.48501,0.70679,1.1688,0.18715,-0.87839,-0.41902,0.20416,-0.49379,-0.96639,0.093151,1.0301,0.55071,0.38207,1.5637,2.1576,1.2221,0.70812,1.4447,1.3653,-0.02696,-0.58766,0.15489,0.088255,-0.91184,-0.78725,0.44231,0.63633,-0.028189,0.48972,1.7915,1.7438,0.84365,1.1472,1.8683,1.1742,-0.077191,0.059855,0.56856,-0.27586,-1.2122,-0.58564,0.26146,-0.17571,-0.51371,0.64062,1.574,0.99758,0.61385,1.5122,1.8743,0.73107,0.0089718,0.62394,0.57538,-0.7226,-1.1491,-0.24481,-0.081604,-0.91097,-0.65187,0.77343,1.1153,0.47662,0.8809,2.0108,1.8029,0.69164,0.81424,1.3887,0.60899,-0.68613,-0.46216,0.28056,-0.3281,-1.0231,-0.17146,0.90472,0.54316,0.2402,1.3164,2.168,1.473,0.86437,1.5485,1.7139,0.44807,-0.30234,0.33072,0.42403,-0.65788,-0.86577,0.2641,0.69769,0.029682,0.4009,1.7969,2.056,1.256,1.4192,2.3235,1.8677,0.54047,0.43333,0.98973,0.26766,-0.90484,-0.54272,0.44353,0.08912,-0.45795,0.50473,1.6298,1.2625,0.79608,1.6139,2.2698,1.2456,0.40121,0.88065,0.95913,-0.32154,-1.1035,-0.41163,-0.22525,-1.1546,-1.2609,-0.017685,0.47096,-0.19351,-0.058047,1.113,1.1204,0.032459,-0.12202,0.50339,-0.086568,-1.5373,-1.6753,-1.0266,-1.5405,-2.5639,-2.0285,-0.93471,-1.1619,-1.6705,-0.76283,0.29677,-0.20507,-0.93226,-0.30903,0.1211,-1.003,-1.9845,-1.5811,-1.4178,-2.6056,-3.2498,-2.3432,-1.8118,-2.5354,-2.5067,-1.1841,-0.66403,-1.4646,-1.4513,-0.44396,-0.54799,-1.817,-2.1324,-1.5008,-2.0007,-3.2554,-3.2363,-2.3397,-2.5338,-3.2607,-2.5465,-1.239,-1.3801,-1.9337,-1.1591,-0.24677,-0.9515,-1.8981,-1.4931,-1.1467,-2.2783,-3.2265,-2.6421,-2.1859,-3.02,-3.3438,-2.1535,-1.405,-1.9736,-1.9165,-0.59975,-0.14862,-1.1237,-1.3437,-0.55962,-0.78108,-2.1322,-2.4497,-1.7286,-2.0609,-3.1546,-2.9098,-1.7775,-1.775,-2.3472,-1.6341,-0.37157,-0.53743,-1.2853,-0.75781,-0.08772,-0.94749,-2.073,-1.7474,-1.3785,-2.4034,-3.2174,-2.472,-1.8171,-2.4433,-2.6162,-1.3288,-0.52244,-1.1073,-1.2162,-0.10444,0.17921,-0.98732,-1.4342,-0.76093,-1.0376,-2.3877,-2.6841,-1.7829,-1.8925,-2.7595,-2.307,-0.97973,-0.83202,-1.4434,-0.81596,0.30049,-0.075554,-1.0988,-0.81896,-0.28065,-1.2555,-2.4296,-2.1291,-1.573,-2.3215,-2.9317,-1.9789,-1.0737,-1.5458,-1.6881,-0.44528,0.30724,-0.47234,-0.8604,-0.04875,-0.0027931,-1.2909,-1.8541,-1.1858,-1.3163,-2.5643,-2.6535,-1.5498,-1.3489,-2.0407,-1.5081,-0.11633,-0.024636,-0.78096,-0.3792,0.52126,-0.023907,-1.1982,-1.0823,-0.58506,-1.4458,-2.5272,-2.073,-1.3049,-1.858,-2.3108,-1.2203,-0.20499,-0.62911,-0.91248,0.12618,0.66779,-0.29975,-0.93724,-0.31536,-0.35081,-1.6885,-2.2544,-1.4852,-1.418,-2.318,-2.2115,-0.8833,-0.51444,-1.1218,-0.64966,0.60639,0.55073,-0.43377,-0.29355,0.40793,-0.32489,-1.6562,-1.5979,-0.99972,-1.7043,-2.5648,-1.8462,-0.83748,-1.1885,-1.5521,-0.4542,0.55708,0.016308,-0.48855,0.33472,0.70558,-0.47203,-1.2744,-0.75165,-0.72823,-1.9447,-2.3921,-1.4681,-1.1384,-1.9126,-1.6791,-0.26708,0.13357,-0.5897,-0.30778,0.74289,0.51667,-0.69502,-0.76393,-0.16439,-0.83781,-2.0945,-1.8701,-1.0616,-1.4819,-2.1614,-1.3024,-0.16739,-0.4659,-0.85083,0.08392,0.91102,0.11165,-0.679,-0.11262,0.097348,-1.1791,-1.9805,-1.3857,-1.1742,-2.1998,-2.3878,-1.1928,-0.6536,-1.2524,-1.0215,0.30132,0.5976,-0.32161,-0.32821,0.49815,0.10783,-1.2459,-1.3741,-0.7075,-1.2685,-2.3873,-2.0304,-1.0061,-1.1889,-1.7554,-0.8377,0.37463,0.074328,-0.49001,0.27076,0.8603,-0.13832,-1.1029,-0.66688,-0.45953,-1.6033,-2.2964,-1.4614,-0.96404,-1.6627,-1.6852,-0.36296,0.29406,-0.32763,-0.23965,0.87199,0.95043,-0.19933,-0.44726,0.19347,-0.25053,-1.6093,-1.6832,-0.8504,-1.1713,-2.0693,-1.5217,-0.27666,-0.34873,-0.84314,0.019279,1.1133,0.61367,-0.22756,0.2527,0.69819,-0.35622,-1.4024,-0.95704,-0.61228,-1.6481,-2.1482,-1.1556,-0.42001,-0.97699,-1.0026,0.2806,0.8244,-0.0072937,-0.13082,0.77459,0.6644,-0.66221,-1.0535,-0.44057,-0.88317,-2.139,-2.078,-1.0695,-1.1322,-1.8734,-1.1902,0.12453,0.081588,-0.59759,0.058834,0.92036,0.1863,-0.8838,-0.61573,-0.26333,-1.3245,-2.3089,-1.7254,-1.1751,-1.8736,-2.2096,-0.99576,-0.14963,-0.69351,-0.80606,0.4181,0.85529,-0.13721,-0.57788,0.068025,-0.20536,-1.6163,-2.0395,-1.3148,-1.5179,-2.5565,-2.2958,-1.0133,-0.88646,-1.4629,-0.75139,0.51853,0.34629,-0.49756,-0.12961,0.52783,-0.29947,-1.4704,-1.1977,-0.70837,-1.581,-2.3925,-1.5733,-0.71229,-1.2256,-1.4223,-0.19689,0.67728,0.036082,-0.25463,0.67898,0.85646,-0.36583,-0.96657,-0.35366,-0.53706,-1.8298,-2.0969,-1.1341,-1.0743,-1.8652,-1.4869,-0.11741,0.069682,-0.57189,-0.056282,1.0869,0.65817,-0.48457,-0.36996,0.16666,-0.72037,-1.8799,-1.5212,-0.83349,-1.5206,-2.123,-1.1454,-0.1311,-0.53932,-0.76178,0.3316,1.0159,0.15097,-0.39946,0.30126,0.35928,-0.96457,-1.6542,-1.0496,-1.0656,-2.1875,-2.288,-1.0702,-0.78295,-1.468,-1.0052,0.36835,0.47522,-0.35134,-0.086769,0.74662,0.13831,-1.1749,-1.1744,-0.65264,-1.4268,-2.5032,-1.9904,-1.1109,-1.5239,-1.9691,-0.87323,0.25197,-0.22258,-0.60627,0.27322,0.78603,-0.29039,-1.0352,-0.45483,-0.45437,-1.7675,-2.3465,-1.5131,-1.2779,-2.1337,-1.9975,-0.6825,-0.24898,-0.87546,-0.55895,0.65889,0.55842,-0.56344,-0.57945,0.083779,-0.57652,-1.9003,-1.813,-1.083,-1.6041,-2.4104,-1.6675,-0.51546,-0.73789,-1.1461,-0.10249,0.90444,0.33136,-0.29708,0.36141,0.69082,-0.49797,-1.385,-0.81902,-0.67507,-1.7592,-2.1879,-1.1032,-0.55829,-1.1998,-0.98338,0.35689,0.73521,-0.026393,0.062804,1.0842,0.84647,-0.41691,-0.57095,0.1006,-0.47079,-1.693,-1.4569,-0.52323,-0.78459,-1.4257,-0.5808,0.64472,0.47731,-0.035916,0.82516,1.6151,0.77437,-0.12747,0.33262,0.60536,-0.62405,-1.5099,-0.88167,-0.57224,-1.4453,-1.7054,-0.49397,0.10046,-0.56383,-0.49547,0.75775,0.98922,-0.078542,-0.28155,0.47253,0.078631,-1.3615,-1.6055,-0.93019,-1.3708,-2.4218,-2.0431,-0.87745,-0.98991,-1.563,-0.77537,0.43855,0.073406,-0.65436,-0.13328,0.42107,-0.56321,-1.6243,-1.2718,-0.97436,-2.0444,-2.7197,-1.8581,-1.2309,-1.8806,-1.9821,-0.69654,-0.013278,-0.69574,-0.72899,0.33821,0.4579,-0.76854,-1.1231,-0.51012,-0.95987,-2.2864,-2.4257,-1.5495,-1.7022,-2.5338,-1.9606,-0.61869,-0.58556,-1.1717,-0.43597,0.61533,0.14464,-0.83246,-0.45827,-0.04205,-1.1174,-2.2596,-1.814,-1.3629,-2.2333,-2.7328,-1.6386,-0.80537,-1.2996,-1.313,-0.067794,0.50924,-0.33003,-0.62151,0.24076,0.16693,-1.1331,-1.489,-0.67237,-0.80297,-1.8061,-1.581,-0.32276,-0.11744,-0.59249,0.18187,1.6801,1.8042,1.2229,1.8083,2.7313,2.097,1.0412,1.3659,1.8607,0.98417,0.073598,0.6926,1.3656,0.71358,0.26695,1.3037,1.9286,1.1278,0.56438,1.2373,1.2134,-0.31534,-1.3449,-1.2055,-1.8315,-3.6538,-4.542,-4.1256,-4.5129,-5.7542,-5.78,-4.6915,-4.5775,-5.264,-4.6074,-3.2951,-3.3657,-4.2153,-3.8279,-2.9985,-3.6239,-4.7244,-4.3092,-3.6254,-4.2401,-4.8928,-3.919,-2.8083,-3.0759,-3.2277,-1.946,-0.91101,-1.3852,-1.7174,-0.79151,-0.47911,-1.677,-2.2916,-1.6625,-1.6434,-2.8255,-3.0223,-1.9128,-1.6014,-2.2658,-1.7771,-0.30623,0.015343,-0.67073,-0.34086,0.72982,0.34128,-0.81639,-0.76346,-0.1819,-0.98405,-2.1321,-1.7903,-0.96686,-1.4715,-2.012,-1.0591,0.039033,-0.32435,-0.67518,0.30446,0.99403,0.10443,-0.59991,0.02779,0.11563,-1.1568,-1.8601,-1.1584,-1.018,-1.9729,-2.0284,-0.71348,-0.29973,-0.93611,-0.567,0.7614,0.8975,-0.090206,0.0065362,0.80529,0.29828,-0.98059,-0.9865,-0.36437,-1.0016,-2.0275,-1.4563,-0.38812,-0.67124,-1.0951,-0.079506,1.0406,0.61722,0.09368,0.8914,1.3459,0.26475,-0.59577,-0.098269,0.017899,-1.1561,-1.701,-0.8003,-0.39827,-1.1543,-1.0917,0.27105,0.7454,0.053826,0.22575,1.359,1.3286,0.16884,0.0092931,0.64858,0.05631,-1.2608,-1.2145,-0.4026,-0.81968,-1.6283,-0.87547,0.33836,0.16702,-0.3048,0.60069,1.5245,0.91462,0.13705,0.66419,0.96496,-0.2089,-1.1834,-0.64481,-0.36464,-1.3583,-1.7048,-0.58803,0.039672,-0.62996,-0.54055,0.78701,1.2105,0.34387,0.23452,1.1067,0.83998,-0.50984,-0.78621,-0.14193,-0.61779,-1.7547,-1.5586,-0.47585,-0.58449,-1.169,-0.36229,0.89607,0.72348,0.097677,0.81145,1.5864,0.74349,-0.22252,0.17605,0.44333,-0.68185,-1.5999,-0.92946,-0.43094,-1.1785,-1.3733,-0.11044,0.603,0.0018031,0.033939,1.1958,1.4996,0.43551,0.13286,0.82504,0.50778,-0.87225,-1.1227,-0.33824,-0.55791,-1.5033,-1.1105,0.14805,0.17616,-0.3921,0.35676,1.4889,1.1068,0.2437,0.64168,1.2264,0.2493,-0.9113,-0.59378,-0.24708,-1.1933,-1.927,-1.0436,-0.29791,-0.88044,-1.0505,0.1988,0.91335,0.12819,-0.12415,0.77286,0.763,-0.54987,-1.1081,-0.50535,-0.79111,-2.089,-2.2513,-1.2729,-1.3471,-2.1473,-1.6854,-0.39173,-0.36267,-1.0566,-0.55412,0.35284,-0.26164,-1.3905,-1.2268,-0.76444,-1.8042,-2.9279,-2.4974,-1.9323,-2.6884,-3.2485,-2.2178,-1.3683,-1.9059,-2.0741,-0.95059,-0.41478,-1.3792,-1.8927,-1.2143,-1.2933,-2.6851,-3.2746,-2.5902,-2.7443,-3.8318,-3.7654,-2.5354,-2.3409,-2.9464,-2.3695,-1.0087,-1.0559,-1.9263,-1.6224,-0.8422,-1.5358,-2.7868,-2.6786,-2.1988,-3.072,-4.0665,-3.4102,-2.5041,-2.9408,-3.2491,-2.0943,-1.0726,-1.59,-1.9146,-0.98657,-0.65332,-1.7961,-2.4884,-1.9023,-2.009,-3.3066,-3.7033,-2.7986,-2.6056,-3.4346,-3.1457,-1.7786,-1.4069,-2.0452,-1.6405,-0.48086,-0.68831,-1.7991,-1.7053,-1.0718,-1.8511,-3.0872,-2.8921,-2.2368,-2.8743,-3.5981,-2.746,-1.6987,-2.0598,-2.3623,-1.315,-0.46292,-1.1868,-1.7657,-1.1104,-0.91527,-2.1513,-2.9599,-2.385,-2.3205,-3.4313,-3.6973,-2.567,-2.1622,-2.8298,-2.5167,-1.1496,-0.8607,-1.7189,-1.5259,-0.6505,-1.0765,-2.374,-2.4514,-1.8653,-2.5576,-3.7003,-3.3378,-2.3804,-2.7636,-3.3102,-2.3178,-1.1337,-1.4712,-1.9372,-1.1189,-0.46262,-1.3985,-2.2717,-1.7332,-1.5664,-2.8173,-3.5109,-2.76,-2.456,-3.297,-3.3149,-2.0127,-1.4357,-2.0704,-1.8466,-0.61655,-0.52077,-1.579,-1.6451,-0.93134,-1.4623,-2.7661,-2.8157,-2.1079,-2.5628,-3.4686,-2.9034,-1.7506,-1.8894,-2.339,-1.3723,-0.28291,-0.755,-1.4524,-0.79945,-0.31027,-1.3753,-2.3271,-1.8646,-1.6423,-2.7125,-3.239,-2.2441,-1.6536,-2.3182,-2.2011,-0.84879,-0.29893,-1.0697,-1.056,-0.04819,-0.18107,-1.4496,-1.7646,-1.1325,-1.632,-2.9155,-2.8666,-1.9403,-2.1339,-2.8311,-2.1164,-0.77916,-0.83192,-1.3265,-0.55143,0.36138,-0.3136,-1.289,-0.8836,-0.50738,-1.6972,-2.6449,-2.0893,-1.6327,-2.5249,-2.8776,-1.7161,-0.93782,-1.4767,-1.4191,-0.16052,0.32036,-0.62496,-0.8738,-0.059967,-0.33956,-1.7195,-2.0659,-1.3736,-1.6761,-2.7694,-2.4948,-1.3035,-1.2712,-1.8723,-1.1001,0.16289,0.026794,-0.74992,-0.22197,0.41929,-0.46932,-1.653,-1.3855,-1.0454,-2.0992,-2.942,-2.1962,-1.5115,-2.1665,-2.3682,-1.1097,-0.30287,-0.91654,-0.99574,0.057912,0.31273,-0.85335,-1.3291,-0.71392,-0.99013,-2.3105,-2.6357,-1.8219,-1.9897,-2.8855,-2.4325,-1.1048,-0.98594,-1.5675,-0.93965,0.23585,-0.11043,-1.1039,-0.82361,-0.28485,-1.2299,-2.3743,-2.044,-1.4874,-2.2648,-2.9038,-1.9506,-1.0449,-1.5458,-1.7463,-0.53228,0.19142,-0.58771,-1.0046,-0.19248,-0.17536,-1.5509,-2.1429,-1.5035,-1.6335,-2.7931,-2.8526,-1.7485,-1.5471,-2.2677,-1.7346,-0.34239,-0.27953,-1.0647,-0.66246,0.20917,-0.36483,-1.568,-1.4223,-0.92459,-1.8142,-2.8951,-2.4111,-1.6425,-2.1952,-2.6476,-1.5273,-0.5115,-0.99374,-1.3059,-0.26682,0.24596,-0.77971,-1.446,-0.85298,-0.91727,-2.2838,-2.8199,-2.0209,-1.9533,-2.8821,-2.7751,-1.4758,-1.1065,-1.7133,-1.2407,0.01577,-0.010124,-1.0234,-0.88277,-0.21012,-0.94248,-2.2733,-2.2145,-1.6452,-2.3786,-3.268,-2.6074,-1.569,-1.9196,-2.312,-1.2429,-0.26044,-0.83004,-1.3051,-0.51069,-0.16866,-1.3165,-2.0891,-1.5366,-1.4834,-2.6701,-3.0584,-2.0754,-1.7452,-2.4897,-2.2557,-0.8432,-0.44208,-1.1356,-0.88249,0.16865,-0.0864,-1.2683,-1.3368,-0.73675,-1.439,-2.6659,-2.4411,-1.6321,-2.0812,-2.7602,-1.9008,-0.7067,-0.97544,-1.3599,-0.36609,0.49078,-0.24953,-0.98112,-0.41426,-0.23312,-1.4799,-2.31,-1.6854,-1.4735,-2.4986,-2.7154,-1.5493,-1.0389,-1.6372,-1.4058,-0.082573,0.15559,-0.73385,-0.71069,0.086847,-0.303,-1.6563,-1.8425,-1.2341,-1.8239,-2.8836,-2.4677,-1.4429,-1.6545,-2.1913,-1.3024,-0.1189,-0.47733,-1.0998,-0.36785,0.28077,-0.68809,-1.7107,-1.245,-1.0665,-2.2391,-2.9902,-2.1841,-1.7449,-2.4724,-2.5237,-1.201,-0.57278,-1.2526,-1.1641,-0.052023,-0.0024088,-1.1517,-1.3699,-0.72865,-1.2308,-2.5597,-2.6918,-1.8878,-2.2083,-3.1058,-2.5577,-1.3122,-1.3545,-1.907,-1.0441,0.021122,-0.44878,-1.2895,-0.7795,-0.30425,-1.3582,-2.3746,-1.8995,-1.5249,-2.4138,-2.8841,-1.8618,-1.1257,-1.6822,-1.6487,-0.27717,0.2964,-0.53481,-0.68716,0.21872,0.1383,-1.1585,-1.5493,-0.87735,-1.2316,-2.3991,-2.3083,-1.27,-1.3029,-1.985,-1.3307,-0.044773,-0.17513,-0.88313,-0.25553,0.57718,-0.15641,-1.2553,-0.98678,-0.63391,-1.7239,-2.7664,-2.1824,-1.6317,-2.359,-2.6945,-1.5388,-0.72148,-1.3235,-1.4063,-0.24022,0.13885,-0.85317,-1.2641,-0.55909,-0.7734,-2.1545,-2.548,-1.7936,-1.9083,-2.8878,-2.6266,-1.373,-1.2456,-1.8509,-1.2268,0.014329,-0.21603,-1.0887,-0.69098,-0.033063,-0.88918,-2.0889,-1.8157,-1.3845,-2.286,-3.0677,-2.248,-1.4158,-1.8994,-2.1249,-0.89901,-0.082958,-0.72368,-1.0432,-0.13842,0.039538,-1.2116,-1.8118,-1.1692,-1.3814,-2.6443,-2.911,-1.9477,-1.8874,-2.6778,-2.2698,-0.89978,-0.71221,-1.3826,-0.92511,0.13065,-0.23899,-1.3227,-1.149,-0.61188,-1.5277,-2.6868,-2.3276,-1.5808,-2.1502,-2.635,-1.5104,-0.37847,-0.66903,-0.83241,0.37864,1.1806,0.40404,-0.087317,0.73107,0.84816,-0.35802,-0.90067,-0.06121,0.040432,-0.96378,-0.9759,0.2131,0.50078,-0.24242,0.16227,1.4191,1.3507,0.29026,0.26234,0.80324,-0.09756,-1.7325,-2.0831,-1.9418,-3.1255,-4.5823,-4.4499,-3.8922,-4.5977,-5.3354,-4.532,-3.6993,-4.4078,-4.9375,-4.0868,-3.6028,-4.5615,-5.218,-4.5492,-4.3725,-5.5094,-5.8829,-4.8732,-4.4324,-5.0826,-4.7995,-3.2789,-2.6984,-3.2073,-2.7145,-1.3497,-1.2739,-2.2195,-2.1178,-1.3076,-1.7917,-2.9978,-2.8221,-2.0623,-2.5243,-3.2423,-2.4403,-1.1999,-1.3925,-1.7124,-0.60971,0.39771,-0.17489,-0.77355,-0.055991,0.3325,-0.85581,-1.6837,-1.1173,-0.94357,-2.0565,-2.4261,-1.3703,-0.88346,-1.5245,-1.3076,0.091753,0.49986,-0.29056,-0.20088,0.76244,0.46656,-0.85493,-1.0671,-0.51224,-1.171,-2.4221,-2.1855,-1.222,-1.5122,-2.1529,-1.3367,-0.11075,-0.30697,-0.84901,-0.046046,0.71512,-0.15447,-1.0558,-0.62455,-0.38062,-1.6096,-2.4656,-1.8369,-1.4977,-2.3703,-2.5127,-1.2422,-0.5594,-1.1353,-0.97859,0.27512,0.56567,-0.41372,-0.55766,0.19691,-0.22581,-1.6361,-1.8504,-1.1453,-1.5268,-2.548,-2.1396,-0.94413,-0.99752,-1.5115,-0.66482,0.52028,0.21422,-0.51307,0.067089,0.65122,-0.30328,-1.3639,-0.98164,-0.68368,-1.7825,-2.4281,-1.5953,-0.93826,-1.5876,-1.6592,-0.31459,0.33986,-0.37142,-0.46278,0.54632,0.6079,-0.58877,-0.94288,-0.27079,-0.66146,-2.0168,-2.0971,-1.1911,-1.314,-2.0865,-1.4835,-0.14112,-0.078199,-0.69317,0.043057,1.0655,0.56604,-0.38128,-0.035904,0.4101,-0.63551,-1.7186,-1.2725,-0.79162,-1.6029,-2.0727,-0.97802,-0.085679,-0.60877,-0.62162,0.65335,1.2602,0.42138,0.13039,0.96384,0.8612,-0.5262,-1.0282,-0.38681,-0.63411,-1.7832,-1.7042,-0.50401,-0.3568,-0.94855,-0.2909,1.0906,1.0394,0.28279,0.75149,1.5578,0.83608,-0.36564,-0.15765,0.24967,-0.71422,-1.6829,-1.0634,-0.3313,-0.92429,-1.1946,-0.010961,0.90744,0.40012,0.15941,1.1844,1.5712,0.48231,-0.077989,0.50133,0.31528,-1.0671,-1.5447,-0.77625,-0.8115,-1.7886,-1.521,-0.22685,0.0047818,-0.68126,-0.17066,0.99568,0.72047,-0.30447,-0.18024,0.41529,-0.50259,-1.8077,-1.6557,-1.1472,-1.9665,-2.7945,-2.0546,-1.1191,-1.5913,-1.9184,-0.81198,-0.01092,-0.74832,-1.2558,-0.50521,-0.3681,-1.712,-2.4433,-1.8723,-2.0285,-3.298,-3.5822,-2.648,-2.424,-3.2051,-2.8917,-1.5375,-1.362,-2.1355,-1.8051,-0.85112,-1.3271,-2.6307,-2.6359,-2.0832,-2.9141,-4.1496,-3.8659,-3.1006,-3.634,-4.2034,-3.25,-2.1513,-2.5435,-2.8646,-1.8551,-1.1651,-2.0249,-2.7581,-2.1885,-2.1294,-3.4307,-4.1335,-3.4899,-3.3783,-4.3914,-4.417,-3.1309,-2.6874,-3.3233,-2.9537,-1.6248,-1.4882,-2.4169,-2.3489,-1.5497,-2.0855,-3.3932,-3.3693,-2.776,-3.4127,-4.4089,-3.8958,-2.8564,-3.1097,-3.5331,-2.4584,-1.3379,-1.79,-2.3424,-1.5442,-1.0306,-2.082,-2.942,-2.444,-2.2688,-3.4423,-3.9867,-3.0562,-2.6537,-3.4093,-3.3168,-1.9536,-1.4495,-2.1406,-1.9096,-0.80514,-0.89363,-2.0822,-2.2413,-1.5722,-2.1347,-3.4513,-3.3753,-2.5629,-2.9502,-3.729,-3.0343,-1.82,-1.9908,-2.4622,-1.5562,-0.60262,-1.2413,-2.0477,-1.4908,-1.1895,-2.3629,-3.3076,-2.7685,-2.4586,-3.4811,-3.8856,-2.7391,-2.1109,-2.6922,-2.5437,-1.1863,-0.73306,-1.5992,-1.6788,-0.83536,-1.1309,-2.4803,-2.7854,-2.1993,-2.7039,-3.8697,-3.6731,-2.5899,-2.7566,-3.3406,-2.5334,-1.2453,-1.3881,-1.9841,-1.2992,-0.55298,-1.3954,-2.4196,-2.0498,-1.7527,-2.8481,-3.7071,-3.0069,-2.4786,-3.1964,-3.3907,-2.098,-1.3255,-1.9555,-1.9229,-0.76053,-0.51487,-1.5785,-1.9099,-1.188,-1.5048,-2.855,-3.0756,-2.2907,-2.5978,-3.5428,-3.1201,-1.8318,-1.8032,-2.371,-1.6509,-0.43045,-0.78274,-1.6454,-1.2176,-0.66165,-1.6383,-2.7691,-2.3925,-1.9867,-2.9325,-3.6071,-2.6646,-1.8598,-2.4126,-2.5236,-1.2152,-0.47087,-1.1677,-1.3609,-0.43413,-0.38491,-1.6387,-2.1378,-1.5053,-1.7906,-3.0587,-3.1619,-2.1537,-2.1103,-2.8807,-2.3304,-0.94837,-0.88953,-1.5244,-0.96283,0.003207,-0.52289,-1.5926,-1.3699,-0.87776,-1.8584,-2.9816,-2.5506,-1.9265,-2.6236,-3.0659,-1.9176,-0.95043,-1.4582,-1.5966,-0.44335,0.12224,-0.81241,-1.2961,-0.58796,-0.66645,-2.0284,-2.5589,-1.8447,-1.9397,-3.0268,-2.9013,-1.7001,-1.4759,-2.1101,-1.5327,-0.20073,-0.24751,-1.1174,-0.78366,-0.0030206,-0.72547,-1.976,-1.838,-1.2991,-2.1718,-3.1365,-2.4798,-1.5438,-2.0094,-2.3465,-1.1619,-0.19832,-0.74449,-1.098,-0.16943,0.22289,-0.9194,-1.6113,-1.0247,-1.0723,-2.3694,-2.8242,-1.9483,-1.7842,-2.6419,-2.3819,-1.0435,-0.75928,-1.3971,-0.96257,0.16822,-0.068043,-1.1783,-1.1134,-0.56731,-1.3754,-2.6403,-2.4447,-1.7596,-2.338,-3.0907,-2.2381,-1.161,-1.4924,-1.8237,-0.71728,0.13529,-0.55878,-1.1665,-0.51074,-0.31513,-1.6386,-2.4467,-1.842,-1.8356,-2.9459,-3.2408,-2.1393,-1.7633,-2.4304,-2.1168,-0.77848,-0.54774,-1.3762,-1.2413,-0.33609,-0.76161,-2.0293,-2.077,-1.5196,-2.2115,-3.383,-3.0786,-2.1793,-2.5621,-3.1375,-2.1739,-1.0479,-1.3556,-1.8211,-0.94379,-0.2577,-1.1345,-1.9779,-1.4682,-1.3009,-2.5221,-3.2445,-2.4931,-2.1886,-3.0292,-3.0466,-1.7146,-1.1371,-1.742,-1.5178,-0.31652,-0.22025,-1.2487,-1.3729,-0.65868,-1.2184,-2.551,-2.6002,-1.8626,-2.3463,-3.2809,-2.6567,-1.4741,-1.6124,-2.0322,-1.0357,0.083418,-0.3296,-0.99726,-0.3438,0.17516,-0.88939,-1.8407,-1.3484,-1.0671,-2.1368,-2.6628,-1.6674,-1.1057,-1.7405,-1.7402,-0.41667,0.13367,-0.63667,-0.62242,0.35656,0.28275,-1.0146,-1.2998,-0.63793,-1.137,-2.42,-2.3999,-1.5024,-1.7541,-2.4801,-1.7943,-0.54444,-0.68461,-1.2373,-0.49105,0.42224,-0.25226,-1.2272,-0.8506,-0.5032,-1.6925,-2.6691,-2.1423,-1.773,-2.6941,-3.1049,-1.9429,-1.2228,-1.7904,-1.8203,-0.59052,-0.19705,-1.1419,-1.3903,-0.60524,-0.85506,-2.2638,-2.639,-1.917,-2.219,-3.2825,-3.0074,-1.8156,-1.8122,-2.4421,-1.6987,-0.43523,-0.65874,-1.435,-0.93585,-0.23552,-1.0651,-2.1896,-1.9217,-1.5518,-2.6051,-3.4474,-2.7304,-2.0746,-2.7291,-2.9304,-1.6714,-0.86406,-1.4772,-1.6146,-0.56043,-0.33444,-1.4707,-1.946,-1.3011,-1.5182,-2.8674,-3.1335,-2.2607,-2.2815,-3.1182,-2.6648,-1.3073,-1.1586,-1.7397,-1.0528,0.093891,-0.28121,-1.245,-0.93485,-0.33701,-1.223,-2.3083,-1.8311,-1.1861,-1.8459,-2.3672,-1.3256,-0.33152,-0.65621,-0.6804,0.68056,1.5512,0.91906,0.64912,1.5496,1.7137,0.51445,0.010729,0.73857,0.60899,-0.55014,-0.69705,0.3197,0.31651,-0.55018,-0.25095,0.81947,0.58984,-0.51711,-0.49527,0.054571,-0.92911,-2.5419,-2.8352,-2.6886,-3.8414,-5.2148,-5.0234,-4.5179,-5.3338,-5.9908,-5.0165,-4.0295,-4.482,-4.6766,-3.5491,-2.86,-3.6801,-4.1995,-3.4302,-3.3182,-4.5085,-4.8976,-4.0103,-3.825,-4.6655,-4.4701,-3.0531,-2.5954,-3.1139,-2.553,-1.1495,-1.0577,-1.8948,-1.6365,-0.81686,-1.4316,-2.6447,-2.439,-1.752,-2.3677,-3.198,-2.4785,-1.4102,-1.731,-2.0644,-0.93622,0.046696,-0.49313,-0.99705,-0.17284,0.19896,-0.94841,-1.7205,-1.1676,-1.1432,-2.388,-2.8051,-1.7923,-1.4617,-2.2057,-2.0006,-0.64617,-0.30317,-1.0548,-0.80123,0.25038,-0.0041961,-1.2149,-1.2829,-0.62384,-1.3256,-2.5813,-2.4147,-1.6052,-2.0245,-2.7324,-1.8725,-0.6779,-0.94617,-1.3302,-0.36518,0.49216,-0.27698,-1.0374,-0.44076,-0.22986,-1.4761,-2.2765,-1.5929,-1.3219,-2.2879,-2.475,-1.2205,-0.62171,-1.2196,-0.95839,0.39462,0.66255,-0.22642,-0.20279,0.59521,0.20583,-1.147,-1.3035,-0.66527,-1.196,-2.2552,-1.8682,-0.81363,-0.99546,-1.5025,-0.49591,0.71736,0.418,-0.14539,0.61631,1.2361,0.26771,-0.72518,-0.25897,-0.050682,-1.2228,-1.9442,-1.1669,-0.6979,-1.4542,-1.5344,-0.24049,0.38817,-0.23258,-0.17295,0.93963,1.019,-0.12981,-0.43539,0.20627,-0.29538,-1.6825,-1.7848,-0.98031,-1.271,-2.1388,-1.5316,-0.25633,-0.32745,-0.85022,-0.016158,1.0495,0.52152,-0.31877,0.16244,0.60886,-0.5032,-1.5485,-1.1021,-0.75644,-1.7327,-2.2905,-1.2384,-0.53111,-1.1164,-1.1118,0.20161,0.77565,-0.055099,-0.20698,0.69937,0.61941,-0.73555,-1.1259,-0.51203,-0.9244,-2.15,-2.0881,-1.0493,-1.0818,-1.7634,-1.0793,0.23638,0.16508,-0.51316,0.1149,0.97737,0.27355,-0.76632,-0.468,-0.085369,-1.2042,-2.1877,-1.6618,-1.1106,-1.8375,-2.1725,-1.0163,-0.16923,-0.74147,-0.82379,0.37202,0.81015,-0.18141,-0.59185,0.1136,-0.10026,-1.4516,-1.874,-1.1483,-1.3505,-2.4174,-2.185,-0.93095,-0.86173,-1.4959,-0.87126,0.3703,0.14041,-0.7611,-0.39221,0.23687,-0.64809,-1.9059,-1.7202,-1.2885,-2.2481,-3.1173,-2.3264,-1.5524,-2.1233,-2.3777,-1.2099,-0.39342,-1.0337,-1.382,-0.5061,-0.38627,-1.6662,-2.3246,-1.7694,-2.0104,-3.3315,-3.6563,-2.7511,-2.661,-3.4803,-3.1304,-1.7893,-1.6012,-2.3005,-1.8718,-0.84489,-1.2727,-2.4145,-2.2989,-1.7614,-2.6475,-3.8647,-3.5636,-2.9335,-3.6197,-4.1919,-3.184,-2.1688,-2.5468,-2.7976,-1.6447,-0.95948,-1.7942,-2.3144,-1.642,-1.583,-2.8767,-3.536,-2.8133,-2.8284,-3.92,-3.961,-2.7715,-2.4541,-3.109,-2.6745,-1.3293,-1.2215,-2.0471,-1.7816,-0.94727,-1.5253,-2.8083,-2.7776,-2.2256,-2.9988,-4.045,-3.5605,-2.6215,-3.0043,-3.4486,-2.3517,-1.2549,-1.6699,-2.0527,-1.1429,-0.6585,-1.7047,-2.4778,-1.9551,-1.9537,-3.2953,-3.9026,-3.0683,-2.8321,-3.687,-3.5792,-2.2046,-1.7702,-2.425,-2.1076,-0.91808,-0.98832,-2.1092,-2.1536,-1.4895,-2.1488,-3.501,-3.442,-2.711,-3.2898,-4.1245,-3.4392,-2.3156,-2.5957,-3.0029,-1.9877,-1.0384,-1.6692,-2.326,-1.6958,-1.3655,-2.5827,-3.4687,-2.9604,-2.8448,-3.928,-4.3265,-3.2702,-2.7829,-3.4235,-3.2354,-1.8356,-1.3978,-2.1585,-2.0683,-1.1631,-1.4586,-2.7503,-2.9327,-2.3188,-2.9186,-4.1399,-3.9028,-2.9682,-3.2872,-3.9275,-3.0816,-1.8258,-2.0216,-2.4753,-1.6426,-0.82239,-1.6329,-2.5338,-2.0728,-1.7991,-2.969,-3.7953,-3.0783,-2.6801,-3.4936,-3.6355,-2.3939,-1.7107,-2.2861,-2.1289,-0.84549,-0.5252,-1.4748,-1.6183,-0.83401,-1.1977,-2.549,-2.7335,-1.9693,-2.3504,-3.3419,-2.9623,-1.7957,-1.8486,-2.3622,-1.4564,-0.24159,-0.54721,-1.274,-0.66414,-0.02097,-0.97502,-1.9766,-1.5646,-1.2662,-2.3353,-3.0097,-2.1471,-1.4897,-2.1385,-2.2097,-0.89397,-0.20978,-0.89131,-0.95293,0.085903,0.14793,-1.1069,-1.5484,-0.9052,-1.2954,-2.621,-2.7301,-1.8237,-1.9755,-2.8061,-2.232,-0.94775,-0.94298,-1.5575,-0.85013,0.1435,-0.38485,-1.3903,-1.0445,-0.59805,-1.6725,-2.7552,-2.3086,-1.8273,-2.6968,-3.1661,-2.071,-1.2368,-1.7887,-1.889,-0.67219,-0.09423,-0.96187,-1.311,-0.47711,-0.57932,-1.9956,-2.4678,-1.826,-2.0729,-3.2215,-3.142,-2,-1.9403,-2.6195,-2.0493,-0.75522,-0.80594,-1.5621,-1.093,-0.28625,-1.0075,-2.1795,-2.0004,-1.5633,-2.4975,-3.495,-2.8751,-2.1132,-2.6765,-2.9464,-1.7623,-0.84343,-1.321,-1.5027,-0.38941,0.027123,-1.0613,-1.6211,-1.0121,-1.1977,-2.5211,-2.9396,-2.0828,-2.059,-2.9772,-2.7091,-1.3559,-1.1238,-1.7215,-1.1519,0.073467,-0.11341,-1.0793,-0.86676,-0.24149,-1.0418,-2.2292,-1.9889,-1.3921,-2.1523,-2.9506,-2.1517,-1.1572,-1.5996,-1.8384,-0.67295,0.24574,-0.40334,-0.82251,-0.012865,0.18327,-1.1016,-1.8031,-1.2318,-1.2996,-2.5687,-2.911,-1.8885,-1.664,-2.3862,-2.043,-0.65911,-0.45381,-1.1976,-0.89607,0.058348,-0.35857,-1.5739,-1.5787,-1.0841,-1.9146,-3.1497,-2.807,-2.0411,-2.5449,-3.1431,-2.1307,-1.0316,-1.394,-1.7147,-0.7048,-0.01431,-0.93229,-1.6943,-1.1243,-1.0355,-2.3657,-3.0974,-2.424,-2.2826,-3.2953,-3.3205,-2.0633,-1.59,-2.2548,-1.9141,-0.64334,-0.53562,-1.4931,-1.3955,-0.59578,-1.1312,-2.4384,-2.4434,-1.7911,-2.4567,-3.4524,-2.8803,-1.8112,-2.0934,-2.5163,-1.4705,-0.32024,-0.77195,-1.3239,-0.55455,-0.04056,-1.0622,-1.9218,-1.3941,-1.2477,-2.3622,-2.8476,-1.8581,-1.4258,-2.1224,-2.0295,-0.66588,-0.16133,-0.88128,-0.70844,0.33784,0.22048,-0.9677,-1.1263,-0.51542,-1.1361,-2.4523,-2.3758,-1.5337,-1.9205,-2.6403,-1.8866,-0.67187,-0.8423,-1.3132,-0.40681,0.54719,-0.14965,-0.98491,-0.48615,-0.18447,-1.416,-2.3896,-1.8794,-1.6276,-2.6497,-3.0831,-1.9948,-1.4247,-2.0642,-2.0031,-0.64539,-0.22099,-1.0867,-1.1951,-0.35131,-0.64647,-2.0247,-2.3001,-1.6549,-2.1592,-3.3245,-3.0982,-2.0731,-2.1809,-2.7938,-1.9861,-0.72688,-0.92785,-1.582,-0.89667,-0.17936,-1.0214,-2.1037,-1.7335,-1.4067,-2.531,-3.3895,-2.6889,-2.1602,-2.9068,-3.1008,-1.8077,-1.064,-1.635,-1.6313,-0.4392,-0.16381,-1.2563,-1.6166,-0.92356,-1.2985,-2.6776,-2.9564,-2.2004,-2.4778,-3.4223,-2.9992,-1.7105,-1.6815,-2.2196,-1.4112,-0.2196,-0.54218,-1.4044,-0.94689,-0.33194,-1.2496,-2.3214,-1.8858,-1.3624,-2.1905,-2.7182,-1.6288,-0.73578,-1.1416,-1.1057,0.32026,1.2115,0.69091,0.67385,1.7475,1.9144,0.77817,0.39666,1.1468,0.92049,-0.23006,-0.30353,0.70508,0.69036,-0.079637,0.35385,1.5312,1.3854,0.45799,0.69772,1.2833,0.28887,-1.2492,-1.4656,-1.4417,-2.8614,-4.3944,-4.3438,-4.1588,-5.2362,-6.0005,-5.2033,-4.4994,-5.0946,-5.2619,-4.1082,-3.4543,-4.3007,-4.6375,-3.7824,-3.6847,-4.8705,-5.2248,-4.3637,-4.3119,-5.2227,-4.9796,-3.6022,-3.2311,-3.7185,-2.9942,-1.5153,-1.3859,-2.0796,-1.6282,-0.7593,-1.3934,-2.5263,-2.3294,-1.7607,-2.5452,-3.4216,-2.7351,-1.8574,-2.2639,-2.542,-1.3277,-0.30516,-0.79233,-1.1454,-0.21646,0.14698,-0.99491,-1.6571,-1.0408,-1.1173,-2.4432,-2.8684,-1.9628,-1.7982,-2.6263,-2.3658,-0.99778,-0.65453,-1.3212,-0.8863,0.24489,0.03833,-1.0423,-0.97692,-0.34253,-1.1209,-2.3854,-2.1601,-1.4453,-2.0527,-2.7756,-1.864,-0.72794,-1.0589,-1.3605,-0.25368,0.59929,-0.094369,-0.67239,0.042366,0.26768,-1.0261,-1.7752,-1.1408,-1.0754,-2.156,-2.3626,-1.2314,-0.79644,-1.4631,-1.1492,0.2482,0.50864,-0.31937,-0.15481,0.78009,0.35497,-0.91236,-0.93027,-0.31395,-0.9468,-2.0594,-1.6666,-0.70834,-1.0614,-1.6365,-0.67244,0.51255,0.1759,-0.2892,0.61785,1.275,0.34009,-0.50296,0.007104,0.14551,-1.1045,-1.8265,-1.0455,-0.76986,-1.6393,-1.715,-0.44112,0.10745,-0.5264,-0.27241,0.95851,1.0552,0.027164,-0.038097,0.64724,0.08791,-1.3029,-1.4103,-0.73093,-1.2142,-2.1777,-1.641,-0.48725,-0.65451,-1.1325,-0.16489,0.95463,0.48341,-0.21315,0.44071,0.90146,-0.22129,-1.2308,-0.79674,-0.54427,-1.6429,-2.1978,-1.2313,-0.66925,-1.3036,-1.2443,0.13819,0.68892,-0.051731,-0.037089,1.0009,0.89816,-0.34022,-0.62502,-0.021348,-0.54928,-1.8612,-1.8115,-0.88422,-1.1063,-1.8319,-1.0871,0.22176,0.081982,-0.49959,0.21773,1.1314,0.428,-0.48793,-0.081669,0.29542,-0.80562,-1.7818,-1.2253,-0.76779,-1.6299,-1.9817,-0.81933,-0.098785,-0.66606,-0.63697,0.65182,1.075,0.13053,-0.14675,0.63866,0.35993,-1.0191,-1.394,-0.70081,-1.0318,-2.0949,-1.8487,-0.68582,-0.65269,-1.2822,-0.59706,0.60822,0.3558,-0.47864,-0.0084229,0.6337,-0.28334,-1.4661,-1.2271,-0.91545,-1.9976,-2.8689,-2.1515,-1.4953,-2.1494,-2.3796,-1.1495,-0.37109,-1.0718,-1.2673,-0.27139,-0.1036,-1.3567,-1.9194,-1.362,-1.6667,-3.0448,-3.3691,-2.5252,-2.6335,-3.5284,-3.1332,-1.834,-1.7435,-2.3828,-1.7834,-0.69494,-1.099,-2.1209,-1.8983,-1.3587,-2.3615,-3.5343,-3.2325,-2.7336,-3.5395,-4.1776,-3.2821,-2.3756,-2.8171,-2.9581,-1.7432,-1.0186,-1.7969,-2.1837,-1.3414,-1.2941,-2.6102,-3.2014,-2.5025,-2.661,-3.8197,-3.8784,-2.7441,-2.5711,-3.2323,-2.7276,-1.3346,-1.2416,-1.9966,-1.6228,-0.72102,-1.3235,-2.4964,-2.3792,-1.8221,-2.7108,-3.7323,-3.2475,-2.4487,-3.0005,-3.4228,-2.331,-1.285,-1.7664,-2.0192,-0.94989,-0.40697,-1.3439,-1.9801,-1.3276,-1.3617,-2.6981,-3.2627,-2.5214,-2.4529,-3.4396,-3.3317,-2.0315,-1.6906,-2.2966,-1.8525,-0.56587,-0.56162,-1.5155,-1.3447,-0.6126,-1.3148,-2.5862,-2.4973,-1.9271,-2.6597,-3.5482,-2.8575,-1.8475,-2.1973,-2.5889,-1.4603,-0.47702,-1.0458,-1.5493,-0.75405,-0.41118,-1.5582,-2.3592,-1.8352,-1.8105,-3.0842,-3.501,-2.5464,-2.2154,-2.9883,-2.7828,-1.428,-1.0554,-1.7773,-1.5234,-0.50073,-0.75494,-2.0239,-2.0915,-1.4907,-2.2214,-3.4767,-3.2804,-2.4999,-2.9482,-3.6263,-2.7661,-1.6004,-1.839,-2.2813,-1.3159,-0.48749,-1.227,-1.987,-1.4486,-1.2081,-2.454,-3.2247,-2.57,-2.3279,-3.2643,-3.451,-2.2254,-1.6263,-2.2238,-1.9623,-0.6089,-0.34061,-1.2585,-1.2931,-0.43616,-0.79588,-2.1483,-2.3045,-1.6366,-2.167,-3.2259,-2.8384,-1.7542,-1.9357,-2.4424,-1.4647,-0.2511,-0.5501,-1.0838,-0.32178,0.32766,-0.61107,-1.545,-1.1077,-0.89909,-2.0416,-2.7333,-1.8971,-1.4277,-2.1544,-2.2342,-0.93992,-0.3109,-0.93129,-0.81271,0.35882,0.43855,-0.68061,-0.89795,-0.19734,-0.66933,-2.0561,-2.1873,-1.3825,-1.7021,-2.6281,-2.0499,-0.83289,-0.90366,-1.4261,-0.62095,0.44511,-0.053269,-0.89321,-0.44094,0.0058341,-1.1059,-2.1508,-1.7041,-1.3288,-2.3047,-2.8328,-1.7803,-1.0727,-1.6577,-1.682,-0.39754,0.14755,-0.65355,-0.83439,0.04302,-0.095178,-1.4205,-1.7812,-1.1377,-1.5204,-2.775,-2.742,-1.7029,-1.7936,-2.5041,-1.8197,-0.50367,-0.57463,-1.2232,-0.6241,0.23872,-0.43546,-1.5043,-1.1763,-0.82264,-1.8826,-2.895,-2.3394,-1.7878,-2.5144,-2.8491,-1.6926,-0.84513,-1.3877,-1.4697,-0.36144,0.018439,-0.97277,-1.3829,-0.64778,-0.83199,-2.2123,-2.5757,-1.7618,-1.9343,-2.9423,-2.6803,-1.4259,-1.2977,-1.9022,-1.2187,0.023203,-0.17705,-1.0196,-0.65039,0.037624,-0.81769,-2.0166,-1.7719,-1.3106,-2.1527,-2.9629,-2.1717,-1.3094,-1.7921,-1.9876,-0.7609,0.085252,-0.58397,-0.90269,0.032192,0.24025,-1.0101,-1.6681,-1.0832,-1.2946,-2.5568,-2.8226,-1.8879,-1.7388,-2.5285,-2.149,-0.77817,-0.5898,-1.2301,-0.71321,0.34334,-0.025508,-1.1377,-0.99249,-0.48389,-1.399,-2.6451,-2.3437,-1.7133,-2.4284,-3.0589,-2.1093,-1.0937,-1.4714,-1.7512,-0.65651,0.029046,-0.77601,-1.2959,-0.56458,-0.50529,-1.7986,-2.4576,-1.8224,-1.8079,-2.8992,-2.9398,-1.7793,-1.4616,-2.1161,-1.6813,-0.33577,-0.19833,-1.0529,-0.84567,0.018276,-0.58877,-1.8714,-1.8404,-1.3173,-2.1195,-3.136,-2.6219,-1.6826,-2.065,-2.509,-1.4118,-0.31469,-0.78796,-1.1997,-0.26034,0.25373,-0.76283,-1.5357,-0.95404,-0.86443,-2.1763,-2.7248,-1.8901,-1.6243,-2.4788,-2.3414,-0.93723,-0.50245,-1.1277,-0.78059,0.43851,0.39789,-0.66412,-0.64956,0.073516,-0.55622,-1.8788,-1.7609,-1.0003,-1.4615,-2.2666,-1.5224,-0.36916,-0.61963,-0.99726,0.018282,0.99718,0.39606,-0.31901,0.31143,0.61281,-0.57473,-1.4898,-0.98115,-0.80665,-1.9481,-2.3462,-1.2896,-0.83133,-1.5009,-1.3125,0.029012,0.43789,-0.35176,-0.3199,0.6149,0.29049,-1.0595,-1.2709,-0.686,-1.3147,-2.5943,-2.4155,-1.5392,-1.9165,-2.615,-1.8274,-0.62991,-0.88396,-1.4252,-0.5922,0.22833,-0.6112,-1.5997,-1.1969,-1.0401,-2.3269,-3.2408,-2.582,-2.2127,-3.0846,-3.2848,-2.0428,-1.3886,-1.993,-1.8941,-0.63965,-0.34833,-1.3563,-1.4994,-0.7441,-1.1075,-2.4584,-2.6719,-1.9661,-2.3468,-3.3966,-2.9874,-1.8205,-1.9024,-2.4449,-1.5975,-0.353,-0.6876,-1.4141,-0.80392,-0.21903,-1.2021,-2.2619,-1.8789,-1.5509,-2.6197,-3.3231,-2.4309,-1.7732,-2.3924,-2.434,-1.0593,-0.37483,-0.99745,-1.0588,-0.01962,0.072012,-1.1532,-1.5652,-0.8923,-1.2236,-2.5196,-2.5405,-1.5166,-1.4923,-2.1175,-1.4259,0.063697,0.18596,-0.28177,0.60169,1.8007,1.4777,0.73624,1.2874,1.9686,1.0702,0.19293,0.75697,1.3265,0.57451,0.16409,1.2888,2.1233,1.5717,1.4424,2.6009,3.0327,1.931,1.3478,1.8304,1.3183,-0.44918,-1.4191,-1.2458,-1.9611,-3.5782,-4.0258,-3.3522,-3.7316,-4.7914,-4.4552,-3.4246,-3.7094,-4.6118,-4.2009,-3.3646,-4.0269,-5.0814,-4.7555,-4.1424,-4.959,-5.7512,-4.9552,-4.0173,-4.4337,-4.6155,-3.2846,-2.2189,-2.6083,-2.7018,-1.5297,-0.96635,-1.9373,-2.3503,-1.6238,-1.6333,-2.9271,-3.2868,-2.4004,-2.347,-3.2062,-2.9086,-1.5551,-1.2641,-1.8323,-1.2623,-0.065968,-0.25255,-1.2182,-0.97602,-0.32116,-1.1211,-2.3083,-2.097,-1.5585,-2.3477,-3.0871,-2.2586,-1.2931,-1.7059,-1.9445,-0.7787,0.11098,-0.53781,-0.92739,-0.11746,0.078965,-1.147,-1.8483,-1.218,-1.2855,-2.4958,-2.7206,-1.6392,-1.3852,-2.0777,-1.6464,-0.23289,0.031291,-0.68288,-0.3225,0.6615,0.27416,-0.9116,-0.85746,-0.33329,-1.1342,-2.3104,-1.9967,-1.2013,-1.7048,-2.2734,-1.29,-0.16131,-0.4649,-0.78523,0.2835,1.0036,0.14447,-0.55867,0.099531,0.18857,-1.0827,-1.7555,-1.0526,-0.85234,-1.8061,-1.831,-0.51495,-0.041407,-0.64729,-0.30628,0.99402,1.1313,0.17411,0.27204,1.0427,0.50758,-0.85798,-0.89198,-0.26866,-0.8754,-1.8708,-1.3277,-0.28763,-0.54026,-0.96293,0.053859,1.1458,0.72368,0.20133,0.94164,1.4266,0.34667,-0.57124,-0.072553,0.015508,-1.1866,-1.7596,-0.85772,-0.4545,-1.1801,-1.0869,0.27699,0.78182,0.12073,0.29385,1.4283,1.3405,0.1233,-0.064347,0.57613,-0.044255,-1.4188,-1.4592,-0.67539,-1.062,-1.8694,-1.174,0.041009,-0.099846,-0.57048,0.33619,1.2905,0.62319,-0.1825,0.37512,0.70637,-0.4956,-1.4396,-0.89986,-0.58921,-1.611,-1.9856,-0.86765,-0.23877,-0.84863,-0.72875,0.59999,1.0247,0.1592,0.021736,0.89514,0.62955,-0.7191,-0.96499,-0.29024,-0.76492,-1.9593,-1.762,-0.70735,-0.84411,-1.4275,-0.61957,0.66926,0.46855,-0.15608,0.55886,1.2764,0.43465,-0.58877,-0.21834,0.079414,-1.0446,-1.9029,-1.202,-0.67299,-1.4194,-1.6423,-0.40757,0.36563,-0.2344,-0.2011,0.96196,1.179,0.057493,-0.33188,0.33217,-0.071818,-1.48,-1.7292,-1.0022,-1.2793,-2.2236,-1.8296,-0.62848,-0.6285,-1.2542,-0.56276,0.5412,0.16029,-0.76023,-0.39039,0.10763,-0.89763,-2.0571,-1.7677,-1.3905,-2.3942,-3.0974,-2.2421,-1.5246,-2.106,-2.2749,-1.0244,-0.33803,-1.122,-1.4025,-0.56294,-0.57164,-1.8834,-2.4111,-1.8072,-2.0918,-3.3593,-3.4618,-2.4823,-2.526,-3.2665,-2.7155,-1.3328,-1.3026,-1.9661,-1.4039,-0.46646,-1.0212,-2.1196,-1.8962,-1.462,-2.4713,-3.5645,-3.1328,-2.5374,-3.263,-3.7047,-2.6143,-1.6758,-2.1243,-2.262,-1.0788,-0.51259,-1.4466,-1.9296,-1.2501,-1.3572,-2.7186,-3.2484,-2.5628,-2.6572,-3.7143,-3.6174,-2.3863,-2.1321,-2.7364,-2.1876,-0.82568,-0.87179,-1.7117,-1.4066,-0.68393,-1.4057,-2.7141,-2.5462,-2.0359,-2.8495,-3.7549,-3.1268,-2.2195,-2.7137,-3.0208,-1.8356,-0.84209,-1.3876,-1.7698,-0.81125,-0.44758,-1.5892,-2.2218,-1.6053,-1.6816,-2.978,-3.4029,-2.497,-2.3323,-3.1893,-2.8994,-1.5018,-1.1583,-1.8247,-1.4189,-0.22886,-0.46448,-1.5741,-1.5378,-0.96181,-1.7399,-3.0335,-2.8665,-2.1808,-2.7879,-3.5399,-2.6867,-1.609,-1.969,-2.2997,-1.1926,-0.3394,-1.0621,-1.6692,-0.9835,-0.78726,-2.0515,-2.8589,-2.2829,-2.2173,-3.2977,-3.5333,-2.3725,-1.9667,-2.6331,-2.3189,-0.92134,-0.63136,-1.4299,-1.2651,-0.32992,-0.75481,-2.0805,-2.1568,-1.5695,-2.2021,-3.3145,-2.9215,-1.9923,-2.3451,-2.8613,-1.8971,-0.71187,-1.0483,-1.5132,-0.60588,0.051538,-0.85388,-1.6967,-1.1864,-1.0185,-2.2683,-2.9022,-2.1209,-1.7865,-2.5678,-2.5553,-1.1934,-0.64455,-1.2489,-0.99467,0.26578,0.39197,-0.66511,-0.75945,-0.073886,-0.66229,-2.0236,-2.1307,-1.4219,-1.9049,-2.8389,-2.2726,-1.0894,-1.2564,-1.7049,-0.70776,0.41198,-0.059012,-0.69676,-0.042675,0.4476,-0.61633,-1.567,-1.1327,-0.90936,-2.037,-2.621,-1.6543,-1.092,-1.7262,-1.6667,-0.28395,0.26701,-0.50272,-0.51715,0.46243,0.35994,-0.90751,-1.2214,-0.58821,-1.1159,-2.369,-2.2898,-1.333,-1.5549,-2.3096,-1.5938,-0.31406,-0.45362,-1.0057,-0.25884,0.65505,-0.018846,-0.99315,-0.58667,-0.23867,-1.3981,-2.374,-1.8467,-1.4182,-2.3094,-2.661,-1.4984,-0.74834,-1.3154,-1.2861,-0.055683,0.39698,-0.57655,-0.82432,-0.038702,-0.34651,-1.7546,-2.1293,-1.4359,-1.7667,-2.8589,-2.6125,-1.4494,-1.416,-1.9867,-1.2135,0.021292,-0.14303,-0.88937,-0.36035,0.36987,-0.51766,-1.6416,-1.3438,-0.97336,-1.9968,-2.8385,-2.0623,-1.4059,-2.0305,-2.2019,-0.94229,-0.10507,-0.71767,-0.82509,0.28821,0.5148,-0.62091,-1.0663,-0.42076,-0.63731,-1.9859,-2.2222,-1.3194,-1.369,-2.2344,-1.8097,-0.51017,-0.39024,-0.97075,-0.31253,0.77614,0.40162,-0.62013,-0.36804,0.14249,-0.80149,-1.9741,-1.6428,-1.1438,-1.9494,-2.558,-1.6037,-0.69698,-1.1969,-1.367,-0.15191,0.57284,-0.20523,-0.62107,0.16281,0.18098,-1.1349,-1.7552,-1.144,-1.3023,-2.4901,-2.5486,-1.4727,-1.2702,-1.9898,-1.4556,-0.062381,0.030828,-0.69469,-0.26212,0.66915,0.12549,-1.1059,-1.0178,-0.54832,-1.4662,-2.5461,-2.0903,-1.3207,-1.843,-2.2943,-1.2316,-0.21477,-0.69597,-0.94854,0.12092,0.66404,-0.38989,-1.0552,-0.43178,-0.46573,-1.7726,-2.337,-1.5956,-1.5269,-2.484,-2.376,-1.0463,-0.73452,-1.3989,-0.92533,0.33222,0.30736,-0.64634,-0.47532,0.19836,-0.50367,-1.8042,-1.7151,-1.1154,-1.7892,-2.6482,-1.9574,-0.91787,-1.2381,-1.571,-0.41292,0.59985,0.031282,-0.47208,0.32338,0.63715,-0.56826,-1.3691,-0.8156,-0.76139,-1.9471,-2.3636,-1.3503,-1.0191,-1.7625,-1.5569,-0.14332,0.22953,-0.49225,-0.26744,0.78472,0.53069,-0.65022,-0.71763,-0.1459,-0.84713,-2.1316,-1.9644,-1.1544,-1.6025,-2.2805,-1.42,-0.2835,-0.55123,-0.96397,-0.027737,0.80085,0.032253,-0.72762,-0.18905,0.022401,-1.2233,-2.0818,-1.4855,-1.2725,-2.2967,-2.5125,-1.316,-0.80459,-1.4312,-1.2281,0.066865,0.33533,-0.6117,-0.61683,0.21101,-0.20713,-1.5594,-1.7154,-1.1059,-1.6654,-2.7534,-2.3951,-1.3693,-1.6092,-2.1157,-1.1965,0.017292,-0.28154,-0.8737,-0.17006,0.42096,-0.57619,-1.5393,-1.1018,-0.893,-2.0646,-2.7855,-1.9783,-1.5088,-2.2646,-2.315,-0.96193,-0.30345,-0.89437,-0.77563,0.33747,0.41738,-0.78951,-1.036,-0.36449,-0.83632,-2.1936,-2.3247,-1.5197,-1.8391,-2.6771,-2.0987,-0.82293,-0.86423,-1.3865,-0.5226,0.57292,0.074706,-0.76507,-0.25405,0.1929,-0.88935,-1.8755,-1.3994,-0.99456,-1.9703,-2.469,-1.4456,-0.70858,-1.2348,-1.171,0.17217,0.77602,0.0043724,-0.1177,0.75986,0.68042,-0.61544,-0.94667,-0.33231,-0.71487,-1.9693,-1.9361,-0.92618,-0.95809,-1.5806,-0.89602,0.44946,0.40796,-0.21117,0.4467,1.339,0.66495,-0.34512,-0.017006,0.42473,-0.60575,-1.5594,-0.94509,-0.36407,-1.0612,-1.3664,-0.18043,0.69645,0.12471,0.042892,1.2392,1.5899,0.54028,0.13034,0.80699,0.56434,-0.84512,-1.2377,-0.51152,-0.71318,-1.7503,-1.5175,-0.32148,-0.22246,-0.8561,-0.26031,0.92316,0.69376,-0.20725,0.074234,0.67451,-0.20995,-1.438,-1.2518,-0.84893,-1.8373,-2.7353,-2.0611,-1.2573,-1.8277,-2.0817,-0.8548,-0.0084968,-0.64827,-0.93755,-0.031818,0.14709,-1.0738,-1.7024,-1.0881,-1.2993,-2.5906,-2.8563,-1.9214,-1.8308,-2.5911,-2.1528,-0.75254,-0.59333,-1.2628,-0.80434,0.25236,-0.14564,-1.287,-1.1709,-0.66219,-1.5478,-2.7352,-2.3751,-1.686,-2.313,-2.914,-1.9057,-0.89005,-1.2383,-1.4593,-0.30591,0.40908,-0.42513,-0.97415,-0.27201,-0.21258,-1.5057,-2.106,-1.4414,-1.4268,-2.5179,-2.5877,-1.3978,-1.0506,-1.6757,-1.2115,0.16353,0.27182,-0.55334,-0.28737,0.57672,0.028407,-1.1955,-1.135,-0.46536,-1.1209,-2.0201,-1.3594,-0.30277,-0.56787,-0.83594,0.37855,1.6223,1.3543,1.1477,2.263,2.9823,2.1124,1.4861,2.2144,2.392,1.2267,0.76631,1.6597,1.955,1.1591,1.2674,2.5252,2.8136,1.9542,1.9791,2.8468,2.4254,0.92409,0.44073,0.63659,-0.52036,-2.3409,-2.8088,-2.6047,-3.6224,-4.9254,-4.6499,-3.8773,-4.4499,-5.0032,-4.0461,-3.0378,-3.5802,-4.178,-3.4302,-2.9822,-4.0232,-4.733,-4.0192,-3.7274,-4.6929,-4.9444,-3.7412,-3.107,-3.63,-3.3243,-1.8362,-1.2807,-1.9237,-1.6574,-0.54666,-0.66586,-1.9279,-2.022,-1.349,-1.919,-3.0813,-2.8145,-1.7916,-2.0223,-2.5741,-1.6985,-0.41307,-0.6084,-1.0617,-0.14063,0.70932,-0.042202,-0.88407,-0.39332,-0.14851,-1.3473,-2.2317,-1.6021,-1.2328,-2.1045,-2.3046,-1.0039,-0.32023,-0.86597,-0.70836,0.54622,0.83765,-0.14086,-0.28392,0.47152,0.10828,-1.2719,-1.4559,-0.72069,-1.1013,-2.0924,-1.6537,-0.45743,-0.50995,-1.0524,-0.17551,1.0398,0.67597,-0.050442,0.53059,1.1156,0.16196,-0.86851,-0.45607,-0.12795,-1.138,-1.7827,-0.91975,-0.26188,-0.91031,-0.9518,0.42298,1.1662,0.57296,0.54105,1.6096,1.7013,0.50554,0.15229,0.82524,0.46473,-0.88972,-0.99845,-0.12088,-0.33084,-1.1611,-0.58652,0.7274,0.76188,0.17706,0.88485,1.9082,1.4095,0.43377,0.78,1.2269,0.1821,-0.87084,-0.42389,0.057842,-0.72333,-1.2215,-0.1553,0.67929,0.15704,0.11574,1.3623,1.9699,1.132,0.78325,1.5882,1.5157,0.15849,-0.34263,0.29957,0.053108,-1.0952,-1.0446,0.12714,0.1873,-0.5208,0.1084,1.3735,1.3232,0.56741,1.0663,1.9027,1.2404,0.068818,0.27764,0.6858,-0.30655,-1.2744,-0.68338,0.020274,-0.57188,-0.9,0.22592,1.1159,0.58007,0.36949,1.4539,1.8415,0.75348,0.1647,0.83274,0.67682,-0.70477,-1.1229,-0.29505,-0.30017,-1.2179,-0.94942,0.37484,0.63659,0.0099602,0.57998,1.7471,1.5314,0.53652,0.72017,1.3751,0.57524,-0.72906,-0.5176,0.050277,-0.70958,-1.5075,-0.67887,0.28668,-0.12606,-0.39378,0.80136,1.6911,1.0424,0.59433,1.4044,1.6009,0.37501,-0.3555,0.21624,0.14883,-1.0907,-1.3447,-0.2925,-0.06768,-0.78944,-0.47518,0.87977,1.1147,0.31277,0.58534,1.5401,1.0943,-0.20859,-0.21296,0.28199,-0.57746,-1.7829,-1.4984,-0.7322,-1.2648,-1.892,-0.90851,0.16164,-0.25906,-0.6379,0.34303,0.97528,0.057668,-0.70399,-0.1336,-0.044484,-1.4036,-2.1642,-1.4905,-1.4074,-2.4489,-2.5324,-1.3334,-0.97697,-1.6414,-1.271,9.3951e-05,0.10816,-0.87827,-0.83885,-0.12671,-0.72034,-2.0565,-2.1198,-1.4964,-2.1616,-3.1862,-2.6431,-1.6615,-1.9727,-2.4832,-1.4956,-0.46217,-0.91353,-1.4651,-0.66612,-0.12249,-1.1731,-2.0616,-1.5628,-1.4454,-2.6475,-3.2497,-2.3477,-1.9737,-2.7285,-2.606,-1.242,-0.70785,-1.3982,-1.225,-0.11976,-0.23678,-1.4539,-1.6415,-1.0303,-1.6213,-2.9371,-2.8603,-2.0178,-2.3751,-3.1531,-2.4284,-1.184,-1.3248,-1.766,-0.80072,0.18291,-0.3964,-1.1727,-0.67364,-0.37162,-1.5442,-2.5175,-1.9777,-1.6962,-2.718,-3.0925,-1.9452,-1.3163,-1.8968,-1.7475,-0.41872,0.0060053,-0.85939,-0.9382,-0.064737,-0.33027,-1.7081,-2.0126,-1.3964,-1.871,-3.0067,-2.7508,-1.6667,-1.8327,-2.4453,-1.6667,-0.3778,-0.57844,-1.1737,-0.51732,0.22961,-0.58282,-1.6062,-1.2357,-0.93789,-2.1204,-3.0372,-2.3656,-1.8366,-2.6122,-2.8058,-1.5417,-0.82701,-1.3977,-1.4229,-0.25982,-0.013413,-1.1056,-1.4363,-0.71362,-1.0297,-2.4085,-2.6577,-1.872,-2.0905,-3.0347,-2.582,-1.293,-1.2051,-1.7721,-0.99274,0.16986,-0.1524,-1.0143,-0.5858,-0.058429,-1.0636,-2.1937,-1.8457,-1.4392,-2.3256,-2.9409,-1.9684,-1.1629,-1.7443,-1.8252,-0.54544,0.19961,-0.49645,-0.71829,0.20921,0.22985,-1.0525,-1.5216,-0.82982,-1.0851,-2.3232,-2.3671,-1.2996,-1.2554,-1.9665,-1.3863,-0.032786,0.02676,-0.60739,-0.045112,0.95093,0.45483,-0.6728,-0.47869,-0.044393,-1.0244,-2.0883,-1.6273,-0.97317,-1.6988,-2.1698,-1.0793,-0.14072,-0.58917,-0.75619,0.42705,0.99334,0.088696,-0.33574,0.40243,0.35394,-0.97806,-1.5078,-0.76366,-0.85797,-1.8857,-1.7888,-0.52835,-0.27412,-0.87842,-0.35889,0.94449,0.89841,0.029195,0.33434,1.0864,0.36461,-0.88518,-0.74652,-0.2362,-1.1083,-2.043,-1.4148,-0.53684,-1.0017,-1.3381,-0.15284,0.81143,0.26594,-0.11618,0.81307,1.1768,0.035165,-0.65602,-0.098039,-0.20359,-1.5,-1.9541,-1.0483,-0.88344,-1.7112,-1.4505,-0.082182,0.20274,-0.46367,-0.087084,1.0737,0.80879,-0.30083,-0.23522,0.37013,-0.46657,-1.7308,-1.5345,-0.84879,-1.4559,-2.1493,-1.2667,-0.15964,-0.49031,-0.82097,0.2861,1.1686,0.47524,-0.16112,0.4953,0.69158,-0.57264,-1.3508,-0.77469,-0.70909,-1.8187,-2.0836,-0.95214,-0.54626,-1.2127,-0.89846,0.46985,0.70125,-0.097211,0.12619,1.0321,0.66579,-0.60129,-0.70685,-0.14887,-0.84006,-1.9817,-1.5887,-0.63014,-0.98297,-1.4992,-0.56419,0.62104,0.25535,-0.2681,0.5806,1.238,0.27404,-0.56877,-0.058457,0.080199,-1.1696,-1.9207,-1.1979,-0.8928,-1.7913,-1.8374,-0.56333,-0.01451,-0.64812,-0.39389,0.83727,0.90489,-0.15219,-0.2758,0.40977,-0.12002,-1.452,-1.5298,-0.79166,-1.2454,-2.1794,-1.6131,-0.45915,-0.59688,-1.0453,-0.10679,0.98367,0.51268,-0.18365,0.47045,0.93143,-0.19108,-1.1711,-0.76607,-0.54268,-1.641,-2.225,-1.2583,-0.69603,-1.3595,-1.3,0.053496,0.63375,-0.10667,-0.091801,0.88779,0.75601,-0.48214,-0.76672,-0.13353,-0.69053,-1.9729,-1.923,-0.93691,-1.1295,-1.8256,-1.0805,0.19925,0.08899,-0.43376,0.37166,1.3441,0.72885,-0.18686,0.24892,0.59693,-0.56248,-1.597,-1.099,-0.67049,-1.5324,-1.9133,-0.75068,-0.00062707,-0.56769,-0.50909,0.77992,1.2033,0.25905,0.040579,0.82619,0.57698,-0.77256,-1.1179,-0.39524,-0.6967,-1.701,-1.4253,-0.23293,-0.22889,-0.8289,-0.11425,1.1791,1.0148,0.29775,0.76817,1.4398,0.55226,-0.60101,-0.27393,0.096538,-0.92686,-1.7686,-1.0217,-0.30673,-0.93133,-1.1027,0.15686,0.96478,0.35217,0.18615,1.2701,1.4967,0.30241,-0.20154,0.38536,0.08091,-1.3263,-1.6211,-0.74771,-0.85585,-1.7213,-1.2966,0.032201,0.15212,-0.4577,0.14191,1.2599,0.85604,-0.16572,0.086365,0.59688,-0.37642,-1.5784,-1.2471,-0.74801,-1.583,-2.2502,-1.2666,-0.33059,-0.7719,-0.94201,0.24374,0.96847,0.19039,-0.22547,0.58769,0.63514,-0.68072,-1.2718,-0.66056,-0.81888,-2.0067,-2.0945,-0.98931,-0.81616,-1.5065,-1.0016,0.3623,0.45549,-0.32864,0.10391,0.97656,0.40359,-0.76921,-0.65182,-0.15309,-1.0417,-2.0923,-1.6073,-0.86692,-1.4185,-1.8699,-0.74864,0.29748,-0.15445,-0.40704,0.6624,1.2055,0.21014,-0.39657,0.2268,0.19282,-1.1141,-1.6492,-0.87849,-0.83911,-1.7963,-1.659,-0.30001,0.070328,-0.50622,0.025949,1.2835,1.2293,0.27557,0.44656,1.1495,0.44745,-0.85308,-0.7933,-0.22296,-0.98465,-1.9023,-1.2408,-0.23062,-0.6095,-0.94235,0.18636,1.1991,0.6305,0.12711,0.92254,1.2363,0.089432,-0.68217,-0.09937,-0.074488,-1.2895,-1.6768,-0.66347,-0.33235,-1.0465,-0.75296,0.63125,1.0041,0.28225,0.47773,1.5592,1.2758,0.036265,-0.089781,0.48192,-0.21934,-1.4745,-1.2781,-0.49739,-0.94554,-1.6236,-0.79245,0.34404,0.07628,-0.3365,0.5704,1.3696,0.57172,-0.21748,0.32105,0.53246,-0.71329,-1.5718,-0.97551,-0.79191,-1.8161,-2.0612,-0.86481,-0.32413,-0.95081,-0.71841,0.63509,0.90352,-0.014251,-0.019422,0.80838,0.39019,-0.93285,-1.0595,-0.39154,-0.92177,-2.0098,-1.593,-0.50864,-0.66068,-1.1965,-0.21874,0.96572,0.66684,0.074638,0.83683,1.4864,0.51849,-0.41532,0.022086,0.26015,-0.91149,-1.6617,-0.85463,-0.38514,-1.1117,-1.1914,0.1616,0.82004,0.19977,0.28917,1.3729,1.4528,0.30445,0.057931,0.70007,0.22819,-1.1877,-1.2896,-0.51392,-0.86272,-1.7886,-1.2396,-0.022429,-0.12238,-0.70327,0.13126,1.1681,0.66987,-0.22854,0.22383,0.67072,-0.44087,-1.4857,-1.0389,-0.66342,-1.6392,-2.1673,-1.144,-0.43625,-1.0211,-1.016,0.32715,0.93094,0.12995,-0.021479,0.88533,0.77653,-0.51938,-0.87996,-0.23636,-0.64827,-1.8734,-1.8403,-0.80116,-0.89172,-1.5729,-0.85905,0.48637,0.44481,-0.23298,0.39554,1.2585,0.58437,-0.51364,-0.27348,0.05101,-1.0381,-2.0504,-1.4948,-0.9431,-1.6696,-2.0041,-0.81823,0.029287,-0.51322,-0.5951,0.54255,0.98112,-0.039297,-0.42,0.31518,0.072463,-1.2785,-1.6711,-0.91569,-1.0588,-2.0081,-1.6874,-0.31574,-0.099607,-0.55752,0.21398,1.6318,1.5488,0.82348,1.3686,2.1739,1.4651,0.44208,0.8626,1.4998,0.71642,0.11131,1.0491,1.97,1.546,1.3799,2.636,3.5408,2.901,2.5824,3.3708,3.3739,1.9186,1.0262,1.2889,0.66743,-1.0927,-1.8272,-1.3611,-1.7394,-2.9977,-3.0868,-2.1847,-2.4357,-3.4861,-3.3207,-2.5278,-3.0723,-4.243,-4.0978,-3.4426,-4.1818,-5.2521,-4.7456,-3.91,-4.3614,-4.7574,-3.6026,-2.4113,-2.6424,-2.717,-1.4465,-0.5851,-1.3022,-1.7048,-0.85627,-0.65043,-1.8265,-2.339,-1.5279,-1.4547,-2.4581,-2.4694,-1.2502,-0.81521,-1.4111,-0.91765,0.45726,0.65335,-0.14258,0.1819,1.0459,0.52682,-0.75573,-0.69536,-0.11368,-0.85717,-1.8737,-1.3303,-0.42015,-0.83182,-1.2172,-0.11994,0.94797,0.50405,0.12167,1.0611,1.6045,0.58798,-0.18481,0.39687,0.42793,-0.85461,-1.4323,-0.5683,-0.33171,-1.1862,-1.078,0.29686,0.76099,0.13582,0.51223,1.7021,1.6615,0.57024,0.58484,1.2787,0.64897,-0.64427,-0.55563,0.14642,-0.40268,-1.2077,-0.43418,0.66053,0.4101,-0.026089,0.98949,1.9684,1.3966,0.7402,1.4,1.7307,0.57248,-0.31323,0.25401,0.45785,-0.59567,-0.99376,0.062846,0.55049,-0.11905,0.069374,1.4402,1.8198,0.97162,1.0328,1.9969,1.7604,0.46904,0.28698,0.90123,0.30182,-0.88984,-0.71103,0.19462,-0.06546,-0.73462,0.11158,1.3091,1.0551,0.5431,1.4055,2.1967,1.4158,0.51523,0.97659,1.2213,0.022456,-0.8621,-0.23262,0.048773,-0.85233,-1.0525,0.18943,0.84372,0.26859,0.36751,1.6513,1.9133,0.90541,0.73296,1.4883,1.0957,-0.2846,-0.55664,0.11991,-0.29013,-1.3106,-0.90135,0.29486,0.21295,-0.3003,0.54719,1.7624,1.3985,0.70124,1.3408,1.9257,0.91333,-0.17584,0.2365,0.53522,-0.53354,-1.237,-0.34479,0.31298,-0.27696,-0.31855,1.0268,1.7406,1.0594,0.99809,2.0372,2.0996,0.87437,0.52101,1.1353,0.74535,-0.57991,-0.68875,0.21801,0.095832,-0.67591,-0.042873,1.3002,1.3346,0.77897,1.5159,2.5685,2.0697,1.1231,1.4693,1.916,0.87114,-0.21121,0.26492,0.77584,-0.064039,-0.56236,0.47447,1.2796,0.6987,0.62799,1.8744,2.4234,1.556,1.2072,1.9827,1.8808,0.46487,-0.036366,0.60571,0.32985,-0.90644,-0.88524,0.22776,0.2585,-0.42042,0.15007,1.3858,1.2768,0.46225,0.87308,1.6215,0.84193,-0.35908,-0.23826,0.11119,-0.93988,-1.9664,-1.3755,-0.70129,-1.3522,-1.7097,-0.58389,0.27663,-0.25928,-0.49928,0.52638,0.85529,-0.32073,-0.96821,-0.38819,-0.60283,-1.9845,-2.4321,-1.6336,-1.6682,-2.586,-2.3763,-1.0521,-0.8491,-1.5052,-0.99385,0.1146,-0.13061,-1.1842,-0.97134,-0.37511,-1.2337,-2.5088,-2.2975,-1.7297,-2.4897,-3.2584,-2.4593,-1.4938,-1.936,-2.2038,-1.0381,-0.17779,-0.82661,-1.2748,-0.49424,-0.29785,-1.5531,-2.2838,-1.6829,-1.7797,-2.9607,-3.2149,-2.1335,-1.9088,-2.6014,-2.2287,-0.84457,-0.63902,-1.4118,-1.0222,-0.0089543,-0.36704,-1.5529,-1.4695,-0.88675,-1.6584,-2.8054,-2.4624,-1.6378,-2.1413,-2.6807,-1.668,-0.5394,-0.84304,-1.1634,-0.15334,0.53738,-0.32177,-1.025,-0.45471,-0.36573,-1.6664,-2.3392,-1.5778,-1.4069,-2.3607,-2.3857,-1.0989,-0.59617,-1.2021,-0.83187,0.49768,0.63491,-0.32236,-0.22449,0.54611,0.040228,-1.2961,-1.3009,-0.61902,-1.2258,-2.2213,-1.6783,-0.63825,-0.92024,-1.3723,-0.35555,0.73634,0.25554,-0.35477,0.38548,0.87038,-0.20963,-1.0983,-0.62899,-0.5117,-1.7139,-2.287,-1.3851,-0.982,-1.7076,-1.6146,-0.25072,0.28333,-0.37783,-0.20479,0.90028,0.84172,-0.34626,-0.50469,0.10641,-0.48476,-1.83,-1.7827,-0.96964,-1.3856,-2.1931,-1.4685,-0.28285,-0.42379,-0.83591,0.12927,1.1128,0.504,-0.30177,0.22647,0.55763,-0.61512,-1.5885,-1.0781,-0.79687,-1.7895,-2.1641,-1.0463,-0.38819,-0.96883,-0.81974,0.53821,0.99208,0.18514,0.10617,0.97949,0.68451,-0.66423,-0.9395,-0.29414,-0.79821,-1.9341,-1.7076,-0.62373,-0.73129,-1.344,-0.53623,0.69391,0.49311,-0.13161,0.55394,1.3007,0.42954,-0.62329,-0.25294,0.044707,-1.1087,-1.9378,-1.1784,-0.6202,-1.3081,-1.4725,-0.1793,0.6231,0.052262,0.02687,1.1898,1.4361,0.31445,-0.016433,0.64751,0.30202,-1.077,-1.3263,-0.54083,-0.75943,-1.7038,-1.2806,0.0082872,0.066755,-0.47115,0.27876,1.4412,1.1188,0.22745,0.68508,1.2123,0.2655,-0.86475,-0.51689,-0.11055,-1.0557,-1.7297,-0.78669,-0.010702,-0.5043,-0.61471,0.66491,1.3805,0.65498,0.43298,1.3603,1.4101,0.098271,-0.42959,0.17416,-0.16916,-1.4661,-1.598,-0.61854,-0.60382,-1.3444,-0.79358,0.58902,0.6484,-0.015214,0.5469,1.5135,0.95863,-0.11058,0.14196,0.60539,-0.37474,-1.4974,-1.0659,-0.44124,-1.1377,-1.6382,-0.51856,0.41984,-0.087378,-0.25457,0.89921,1.4653,0.56052,0.077318,0.78602,0.70807,-0.65339,-1.1833,-0.46864,-0.56312,-1.5911,-1.5236,-0.3219,-0.09713,-0.7016,-0.094356,1.1796,1.1333,0.29322,0.62749,1.4086,0.68672,-0.59255,-0.48335,-0.031802,-0.90407,-1.8975,-1.2696,-0.42102,-0.88605,-1.2519,-0.096142,0.86795,0.32229,-0.030703,0.86907,1.2619,0.12011,-0.57125,-0.013441,-0.11917,-1.4157,-1.8407,-0.93506,-0.77042,-1.5691,-1.3085,0.059599,0.40294,-0.26365,0.14206,1.2733,1.0083,-0.10153,-0.06539,0.53979,-0.2092,-1.4443,-1.2482,-0.56266,-1.1992,-1.9221,-1.0397,0.067171,-0.23437,-0.53592,0.60027,1.4533,0.73045,0.1525,0.86734,1.0634,-0.23027,-1.0379,-0.46198,-0.42585,-1.5357,-1.7714,-0.61086,-0.17586,-0.84246,-0.55772,0.7811,1.0123,0.15508,0.31971,1.2254,0.82963,-0.43763,-0.51407,0.10232,-0.55976,-1.7016,-1.3673,-0.46758,-0.8206,-1.3663,-0.4022,0.78285,0.47556,0.039816,0.91763,1.5749,0.66929,-0.203,0.30712,0.44559,-0.7751,-1.4678,-0.68663,-0.38168,-1.2511,-1.2974,0.035119,0.61304,-0.020755,0.20398,1.435,1.5903,0.5916,0.49709,1.2118,0.68179,-0.6797,-0.75769,-0.049018,-0.53225,-1.4664,-0.90031,0.28273,0.086211,-0.42104,0.51733,1.6076,1.1364,0.43989,1.0352,1.496,0.40257,-0.5776,-0.11421,0.13829,-0.93096,-1.4566,-0.51932,0.072049,-0.59161,-0.56157,0.79169,1.3425,0.57254,0.55792,1.508,1.4053,0.13769,-0.17638,0.45661,-0.10059,-1.3832,-1.3334,-0.43545,-0.6868,-1.4124,-0.72613,0.55343,0.47227,-0.079976,0.69596,1.6096,0.93556,-0.00965,0.39663,0.74444,-0.41517,-1.3913,-0.86416,-0.49448,-1.3859,-1.7377,-0.60457,0.11599,-0.50988,-0.51006,0.77874,1.2019,0.25747,0.009497,0.79491,0.57479,-0.74566,-1.0619,-0.36875,-0.6704,-1.7335,-1.4873,-0.32444,-0.3206,-0.92081,-0.17707,1.0575,0.86368,0.11713,0.64594,1.3467,0.48821,-0.66527,-0.36769,0.031871,-0.99173,-1.8337,-1.0577,-0.37222,-0.99703,-1.1393,0.14934,0.98635,0.40283,0.2366,1.3204,1.5468,0.38153,-0.093323,0.58125,0.30589,-1.0429,-1.3087,-0.37687,-0.45592,-1.2923,-0.83847,0.51939,0.6684,0.029064,0.68706,1.7755,1.3715,0.3788,0.68927,1.2875,0.34325,-0.8003,-0.46924,0.058911,-0.74696,-1.3851,-0.40171,0.50478,0.063258,-0.10707,1.1371,1.8616,1.1126,0.7551,1.6266,1.7032,0.3871,-0.23347,0.37753,0.219,-0.96909,-1.1156,-0.039971,0.10366,-0.5869,-0.08225,1.2815,1.3452,0.5901,0.96384,1.8656,1.2631,0.031483,0.14866,0.61787,-0.27093,-1.351,-0.83696,-0.067534,-0.64866,-1.1003,-0.0085019,0.97881,0.52666,0.27385,1.2552,1.7688,0.74388,0.078362,0.70151,0.66731,-0.61054,-1.1458,-0.34607,-0.24831,-1.235,-1.1272,0.17293,0.45516,-0.18021,0.29315,1.5212,1.496,0.5421,0.71287,1.4449,0.74261,-0.55815,-0.46929,0.13013,-0.60249,-1.4618,-0.7419,0.23876,-0.081752,-0.44412,0.65506,1.6383,1.0402,0.47795,1.2146,1.5281,0.35171,-0.44942,0.074562,0.069921,-1.1746,-1.5914,-0.63693,-0.33533,-1.1083,-0.90288,0.45181,0.79509,0.073058,0.29761,1.3495,1.1245,-0.056656,-0.15363,0.41783,-0.31295,-1.5684,-1.3135,-0.4745,-0.92287,-1.6011,-0.74095,0.45391,0.24451,-0.13921,0.82606,1.6837,0.9441,0.24256,0.83946,1.1092,-0.13676,-0.96621,-0.34084,-0.12818,-1.094,-1.3101,-0.11388,0.45585,-0.17106,0.061112,1.3851,1.6533,0.73527,0.72987,1.5574,1.0804,-0.27215,-0.42836,0.2101,-0.34966,-1.438,-1.0506,0.0041689,-0.2067,-0.77207,0.14687,1.3604,1.0613,0.43955,1.1722,1.7922,0.8241,-0.13925,0.26862,0.47715,-0.72402,-1.3866,-0.49186,0.035986,-0.60292,-0.53635,0.90428,1.6504,1.0885,1.2655,2.4955,2.7216,1.7195,1.6485,2.4955,2.1699,0.92953,1.0032,1.8958,1.6933,0.88432,1.4624,2.6793,2.5205,1.9101,2.6858,3.6052,2.9017,1.7979,1.9571,2.0229,0.55947,-0.92504,-0.94724,-1.0701,-2.4856,-3.4826,-2.8697,-2.5724,-3.5384,-3.885,-2.8644,-2.5245,-3.4722,-3.6825,-2.7466,-2.7971,-3.9761,-4.1904,-3.4006,-3.5783,-4.5987,-4.3022,-3.0288,-2.9146,-3.4495,-2.6187,-1.1564,-1.081,-1.5832,-0.80849,0.20067,-0.35647,-1.2497,-0.77536,-0.21675,-1.1303,-1.9671,-1.2359,-0.56732,-1.2062,-1.4824,-0.23812,0.72633,0.27147,0.24794,1.4439,1.9408,0.94947,0.62711,1.3913,1.1777,-0.17351,-0.56637,0.21806,0.045382,-0.93345,-0.67164,0.61192,0.76921,0.19386,0.90652,2.1483,1.9478,1.0465,1.4156,2.0448,1.1893,0.019565,0.23475,0.69589,-0.2049,-0.98604,-0.22431,0.60851,0.096332,-0.12863,1.1565,1.9439,1.2745,0.95562,1.9196,2.1275,0.90631,0.27737,0.89138,0.70908,-0.58255,-0.87786,0.086022,0.20556,-0.5257,-0.11703,1.2829,1.5004,0.85988,1.3473,2.4036,2.0346,0.92226,1.038,1.5464,0.66042,-0.55663,-0.25546,0.37477,-0.31121,-0.91254,0.066148,1.1108,0.73293,0.51155,1.6646,2.3793,1.5447,1.0247,1.7265,1.7856,0.43348,-0.25506,0.37991,0.33566,-0.75585,-0.79668,0.42221,0.76907,0.14365,0.54892,1.865,1.9729,1.0888,1.3252,2.1889,1.5817,0.29885,0.30036,0.85248,0.10873,-0.87874,-0.36488,0.54495,0.10372,-0.34047,0.69788,1.7948,1.3799,0.9973,1.9071,2.4503,1.4335,0.66046,1.2419,1.302,0.048452,-0.50021,0.33423,0.57055,-0.28425,-0.14702,1.2276,1.6915,1.066,1.3836,2.5439,2.4737,1.3822,1.3672,2.0608,1.3722,0.04944,0.10852,0.83959,0.29022,-0.51505,0.25818,1.3819,1.1898,0.81195,1.8566,2.8352,2.2632,1.6357,2.2953,2.5964,1.4379,0.55194,1.0603,1.2053,0.1222,-0.21757,0.83877,1.3261,0.62703,0.84448,2.2151,2.6237,1.8045,1.924,2.8879,2.6511,1.3301,1.0892,1.6739,1.0449,-0.17633,0.0022078,0.93688,0.64723,-0.02221,0.76513,1.9916,1.708,1.1665,1.9993,2.761,1.9505,1.0497,1.4522,1.6087,0.32169,-0.59244,0.0074618,0.34717,-0.52491,-0.78398,0.42841,1.0531,0.38982,0.42987,1.6255,1.8286,0.73257,0.50124,1.1977,0.7462,-0.69293,-0.96525,-0.28898,-0.81648,-1.9251,-1.5747,-0.4667,-0.57819,-1.1796,-0.3617,0.82389,0.43042,-0.35497,0.19638,0.78099,-0.26091,-1.3797,-1.0262,-0.75705,-1.8554,-2.5884,-1.7844,-1.1562,-1.805,-1.9055,-0.64827,0.0066503,-0.67485,-0.73644,0.27312,0.33518,-0.91961,-1.3026,-0.68858,-1.1081,-2.4336,-2.5427,-1.6363,-1.7587,-2.5601,-1.9566,-0.64307,-0.66758,-1.2528,-0.5454,0.50685,-0.021492,-0.96835,-0.65182,-0.20536,-1.2505,-2.3331,-1.8866,-1.376,-2.2161,-2.7147,-1.5903,-0.72681,-1.2202,-1.2911,0.042863,0.65012,-0.15892,-0.44947,0.38443,0.28223,-1.134,-1.6355,-0.99375,-1.2406,-2.3893,-2.3098,-1.1385,-1.0787,-1.7286,-1.0706,0.28208,0.26064,-0.46627,0.0028701,0.8096,0.059025,-1.0837,-0.87526,-0.40891,-1.3138,-2.2527,-1.6328,-0.87099,-1.4343,-1.7335,-0.54939,0.34014,-0.19606,-0.40705,0.64761,1.0348,-0.024299,-0.58419,0.054143,-0.1022,-1.4842,-1.9027,-1.0753,-1.0808,-2.0283,-1.7602,-0.43637,-0.17503,-0.77278,-0.23248,0.96356,0.74736,-0.21859,0.023236,0.64846,-0.21042,-1.4858,-1.2748,-0.70735,-1.4969,-2.2659,-1.467,-0.50192,-0.94438,-1.2125,-0.047103,0.84224,0.19312,-0.2261,0.5835,0.80888,-0.44669,-1.1776,-0.6063,-0.70343,-1.9433,-2.1685,-1.1167,-0.89235,-1.5559,-1.1542,0.2589,0.52274,-0.19177,0.16826,1.1519,0.73494,-0.50977,-0.48527,0.038551,-0.79203,-1.9686,-1.5673,-0.80158,-1.3054,-1.8744,-0.8913,0.20772,-0.15481,-0.50479,0.50499,1.1954,0.30666,-0.39683,0.20241,0.2911,-0.95124,-1.6537,-0.95114,-0.78055,-1.764,-1.8185,-0.56142,-0.14683,-0.78238,-0.44173,0.88751,1.0244,0.096163,0.19374,0.99333,0.48714,-0.84949,-0.91316,-0.2609,-0.92661,-1.8931,-1.3504,-0.31065,-0.59294,-1.0746,-0.028862,1.092,0.66951,0.17608,0.97462,1.4885,0.4375,-0.4515,0.046818,0.1638,-1.0094,-1.6121,-0.71055,-0.30771,-1.0337,-0.94089,0.42264,0.89779,0.20703,0.43835,1.5724,1.455,0.26666,0.10793,0.77732,0.18584,-1.0718,-0.99551,-0.15348,-0.54046,-1.319,-0.56536,0.64926,0.50802,0.036991,0.97257,1.8972,1.2588,0.45271,0.98064,1.3115,0.13843,-0.8353,-0.32521,-0.044252,-1.0079,-1.4121,-0.26529,0.3339,-0.27636,-0.12757,1.2008,1.625,0.75918,0.70921,1.6115,1.3455,-0.0035344,-0.24982,0.39523,-0.07986,-1.2746,-1.0485,-0.023501,-0.13137,-0.74442,0.033765,1.2929,1.0625,0.43744,1.1227,1.8691,0.99765,0.0031071,0.37313,0.69977,-0.45394,-1.3419,-0.64145,-0.083582,-0.80108,-0.99515,0.23919,0.98268,0.35293,0.35652,1.4899,1.7651,0.67246,0.34126,1.0049,0.60048,-0.8374,-1.1164,-0.3312,-0.55013,-1.4948,-1.0426,0.21665,0.2455,-0.29272,0.42758,1.5604,1.2084,0.34602,0.77403,1.3302,0.32452,-0.80605,-0.4878,-0.05248,-1.0565,-1.7602,-0.87606,-0.12969,-0.6822,-0.76363,0.51567,1.2602,0.5344,0.34138,1.2391,1.3179,0.064305,-0.43457,0.19815,-0.086894,-1.3548,-1.4285,-0.44935,-0.46425,-1.2344,-0.65465,0.72763,0.81599,0.18135,0.77244,1.7387,1.2421,0.14329,0.42481,0.88792,-0.06324,-1.0983,-0.63783,0.045079,-0.65173,-1.1232,-0.033211,0.90487,0.39733,0.22982,1.4126,2.0077,1.1025,0.619,1.3567,1.2784,-0.08338,-0.61366,0.10073,-0.02337,-1.0809,-0.95521,0.27547,0.49991,-0.075587,0.53133,1.8342,1.7876,0.88864,1.1933,1.9448,1.1933,-0.05702,0.051848,0.53237,-0.34022,-1.3047,-0.67707,0.22974,-0.23561,-0.5725,0.61223,1.576,1.03,0.67669,1.6054,1.9686,0.79723,0.046946,0.57513,0.49838,-0.7985,-1.2532,-0.3185,-0.12489,-0.92386,-0.63437,0.73344,1.0765,0.40953,0.84421,2.0338,1.7977,0.68753,0.72334,1.2989,0.46168,-0.83234,-0.63658,0.077935,-0.55893,-1.3114,-0.5173,0.55997,0.1995,-0.16097,0.91629,1.7397,1.0458,0.40894,1.0356,1.2313,-0.062713,-0.84133,-0.23649,-0.1714,-1.2522,-1.4883,-0.3574,0.047972,-0.61896,-0.30526,1.0625,1.3227,0.49444,0.65874,1.5641,1.1387,-0.15819,-0.23497,0.41039,-0.28132,-1.482,-1.1189,-0.24874,-0.57279,-1.1188,-0.12576,1.0297,0.75134,0.31525,1.222,1.9082,1.0316,0.21758,0.69808,0.83621,-0.44341,-1.1657,-0.4435,-0.13888,-1.0086,-1.0552,0.24762,0.8252,0.22037,0.44477,1.734,1.9183,0.91927,0.85372,1.5681,1.0963,-0.23619,-0.34381,0.39382,-0.089748,-1.0242,-0.45848,0.69493,0.55667,0.078377,1.0164,2.1356,1.6641,0.99655,1.6501,2.0813,0.95822,-0.051586,0.38217,0.54644,-0.55245,-1.1956,-0.28797,0.27377,-0.36093,-0.33123,1.0217,1.6014,0.88975,0.90409,1.8831,1.7801,0.48284,0.13914,0.74249,0.15565,-1.1566,-1.1658,-0.23882,-0.46122,-1.2457,-0.55982,0.66081,0.55002,-0.0025756,0.71442,1.5985,0.95334,0.0077938,0.41374,0.7905,-0.28156,-1.258,-0.70194,-0.24471,-1.1072,-1.43,-0.26794,0.45228,-0.11533,-0.14516,1.0847,1.5075,0.59205,0.37304,1.1874,0.96694,-0.44174,-0.81694,-0.15341,-0.514,-1.6067,-1.3902,-0.22766,-0.19487,-0.79542,-0.052025,1.2408,1.0466,0.29974,0.8575,1.5579,0.69908,-0.45474,-0.1868,0.18312,-0.81153,-1.6538,-0.87818,-0.16376,-0.75961,-0.90224,0.41536,1.3106,0.72676,0.61877,1.7315,2.0161,0.93845,0.58044,1.3426,1.2133,-0.047942,-0.22616,0.73461,0.7724,-0.0056845,0.53565,1.981,2.1883,1.7244,2.4699,3.7045,3.4173,2.5122,2.8516,3.4495,2.5049,1.3024,1.6038,2.0437,1.091,0.24747,0.96684,1.5507,0.75729,0.20575,1.0101,1.3241,0.16459,-0.60339,-0.17166,-0.47632,-2.1443,-3.0875,-2.7698,-3.2217,-4.6445,-4.9379,-3.9504,-3.8364,-4.4981,-3.8766,-2.396,-2.0983,-2.7072,-2.0995,-1.0516,-1.4493,-2.5055,-2.2422,-1.5976,-2.3402,-3.3035,-2.7019,-1.8449,-2.2506,-2.5854,-1.3768,-0.21405,-0.52007,-0.65604,0.50072,1.1311,0.2231,-0.32559,0.38509,0.43844,-0.89836,-1.434,-0.6053,-0.50789,-1.407,-1.2117,0.20526,0.57503,-0.0020942,0.50021,1.7865,1.7317,0.77739,0.94781,1.6795,1.0354,-0.26567,-0.14787,0.50979,-0.22319,-1.1121,-0.42189,0.617,0.29614,-0.066585,1.0029,1.9858,1.4166,0.91267,1.6782,1.9914,0.75606,-0.10402,0.41961,0.44391,-0.77169,-1.2182,-0.2347,0.095832,-0.64817,-0.38453,0.99909,1.3713,0.67823,1.0196,2.1004,1.9044,0.69357,0.65483,1.2845,0.61199,-0.67308,-0.47721,0.36148,-0.087246,-0.73658,0.15256,1.3178,1.108,0.69463,1.6595,2.4582,1.689,0.92849,1.4957,1.7066,0.43091,-0.3989,0.22611,0.43842,-0.52775,-0.71488,0.51024,1.0796,0.45234,0.65486,2.0078,2.2756,1.3572,1.3222,2.1494,1.7599,0.37768,0.22111,0.85921,0.32839,-0.73097,-0.37328,0.71044,0.49921,-0.037224,0.88136,2.0652,1.7365,1.173,1.876,2.4663,1.5271,0.59272,1.0295,1.2084,0.036163,-0.71466,0.06253,0.50212,-0.25433,-0.27601,1.0178,1.6463,1.0254,1.1435,2.3146,2.4231,1.3035,1.0857,1.7858,1.3426,0.01402,-0.05914,0.71591,0.4251,-0.44279,0.13491,1.3808,1.3095,0.78661,1.6791,2.7447,2.3044,1.464,1.9744,2.4499,1.367,0.32163,0.76782,1.1134,0.10766,-0.42095,0.57242,1.2502,0.63546,0.63998,1.9239,2.4978,1.6962,1.5149,2.3918,2.3117,0.98586,0.56608,1.1798,0.82585,-0.37063,-0.30886,0.72973,0.66785,-0.013939,0.6407,1.9562,1.8262,1.1478,1.7757,2.6087,1.8754,0.77675,1.0456,1.3988,0.33833,-0.67457,-0.14885,0.40221,-0.35418,-0.71865,0.40805,1.1964,0.59465,0.45356,1.5906,1.9699,0.91962,0.45041,1.0971,0.82445,-0.61498,-1.0668,-0.37063,-0.57297,-1.6401,-1.4372,-0.2419,-0.17287,-0.83648,-0.27067,0.91211,0.65273,-0.27827,0.061132,0.69002,-0.22443,-1.4532,-1.2383,-0.77758,-1.7373,-2.5774,-1.8454,-1.0422,-1.584,-1.868,-0.64177,0.17454,-0.49522,-0.81449,0.09055,0.32736,-0.89421,-1.4942,-0.88057,-1.0632,-2.3552,-2.6216,-1.6874,-1.6268,-2.417,-2.038,-0.7264,-0.53858,-1.1794,-0.6631,0.3929,-0.0058022,-1.1185,-0.9446,-0.43656,-1.2643,-2.4231,-2.0637,-1.4046,-2.0323,-2.6047,-1.5971,-0.55284,-0.96035,-1.2114,-0.058714,0.62628,-0.20864,-0.75836,-0.056935,-0.02751,-1.38,-2.0689,-1.405,-1.4203,-2.4829,-2.5241,-1.3056,-0.98836,-1.6142,-1.1507,0.16502,0.30189,-0.55327,-0.28801,0.57536,0.026332,-1.2275,-1.1971,-0.58677,-1.3309,-2.3773,-1.8638,-0.92508,-1.3374,-1.782,-0.74397,0.32331,-0.12126,-0.53356,0.40519,0.88938,-0.15706,-0.93049,-0.37874,-0.34832,-1.6608,-2.2391,-1.3758,-1.1691,-1.995,-1.8874,-0.54246,-0.10827,-0.73408,-0.4169,0.74301,0.6725,-0.4487,-0.49334,0.14125,-0.54768,-1.9001,-1.8707,-1.14,-1.6312,-2.4661,-1.7519,-0.59921,-0.85028,-1.2578,-0.24288,0.73541,0.16298,-0.49411,0.19432,0.49509,-0.69306,-1.5501,-1.0421,-0.89751,-2.0103,-2.4383,-1.353,-0.86605,-1.5069,-1.3192,0.051036,0.43,-0.36027,-0.21184,0.75164,0.51451,-0.74824,-0.90166,-0.25877,-0.82952,-2.0218,-1.8144,-0.85078,-1.1115,-1.752,-0.87717,0.37827,0.15289,-0.35972,0.47269,1.2633,0.48173,-0.39019,0.099817,0.40247,-0.73844,-1.5943,-0.93622,-0.53829,-1.4401,-1.6116,-0.3703,0.34193,-0.20456,-0.076996,1.1768,1.4675,0.45895,0.31513,1.0698,0.67653,-0.70438,-0.91849,-0.15471,-0.5654,-1.5865,-1.1779,-0.01167,-0.064945,-0.60814,0.26798,1.4532,1.1179,0.42006,0.97104,1.5553,0.60089,-0.45965,-0.047967,0.30869,-0.76073,-1.4941,-0.63189,-0.004074,-0.68256,-0.75412,0.56131,1.2451,0.56327,0.53059,1.5691,1.6015,0.3463,-0.0077277,0.63516,0.24458,-1.0813,-1.1615,-0.22615,-0.34899,-1.1507,-0.57691,0.73624,0.74065,0.21366,0.94996,2.0018,1.4438,0.49657,0.87132,1.3467,0.33047,-0.72325,-0.27708,0.17458,-0.66596,-1.1649,-0.12879,0.73432,0.18201,0.11063,1.3564,1.9047,1.0073,0.68712,1.4913,1.3888,0.030731,-0.41258,0.25813,-0.018404,-1.1675,-1.059,0.14117,0.25914,-0.39115,0.26656,1.5602,1.5091,0.72322,1.1627,1.9397,1.2181,0.016399,0.19514,0.60251,-0.39063,-1.3886,-0.73974,0.021718,-0.57122,-0.90013,0.28359,1.1727,0.60686,0.39548,1.4498,1.8366,0.77709,0.21683,0.85477,0.66876,-0.68432,-1.1033,-0.2762,-0.31141,-1.2299,-0.99154,0.33192,0.56357,-0.093152,0.44677,1.6424,1.3965,0.37162,0.52518,1.1207,0.23216,-1.0143,-0.80369,-0.26591,-1.0266,-1.8252,-0.96816,-0.032714,-0.47555,-0.77337,0.36237,1.222,0.51394,0.035741,0.81566,0.95277,-0.30318,-1.0345,-0.43427,-0.50248,-1.7135,-1.9097,-0.85835,-0.57574,-1.2983,-0.89697,0.48647,0.72063,0.0057398,0.33609,1.378,0.98989,-0.25519,-0.23108,0.35095,-0.45072,-1.6276,-1.3147,-0.52001,-0.99488,-1.535,-0.55228,0.54635,0.21273,-0.16692,0.84248,1.5618,0.67267,-0.0019065,0.62625,0.74385,-0.49887,-1.1724,-0.47024,-0.32932,-1.2838,-1.3095,-0.023456,0.47864,-0.12799,0.27086,1.5704,1.6777,0.71971,0.75831,1.4989,0.93376,-0.43255,-0.49661,0.096672,-0.54012,-1.507,-0.99396,0.074689,-0.17869,-0.63141,0.38462,1.5051,1.0822,0.52982,1.2987,1.7829,0.73149,-0.1286,0.39863,0.51523,-0.65837,-1.2614,-0.36028,0.071474,-0.68416,-0.53317,0.85927,1.3926,0.73078,0.93242,2.0368,2.0068,0.84747,0.71764,1.3574,0.76549,-0.55118,-0.47523,0.33712,-0.050243,-0.82914,-0.075912,1.1676,0.9967,0.46669,1.3433,2.2675,1.6287,0.79298,1.2912,1.6217,0.44825,-0.49657,0.042435,0.29371,-0.69957,-1.1042,-0.04567,0.52383,-0.086808,0.0029991,1.2724,1.6083,0.74211,0.63316,1.4472,1.1515,-0.22722,-0.5032,0.082874,-0.45119,-1.6756,-1.4792,-0.45458,-0.62144,-1.2642,-0.48636,0.71378,0.45369,-0.23033,0.42522,1.1713,0.32872,-0.6955,-0.35516,-0.058208,-1.183,-1.9835,-1.2541,-0.72592,-1.4731,-1.6383,-0.37501,0.3974,-0.17414,-0.14164,1.0499,1.3248,0.29032,0.017327,0.76846,0.42227,-0.92811,-1.1782,-0.42269,-0.67129,-1.6164,-1.1938,0.065023,0.093491,-0.44512,0.33339,1.4951,1.1427,0.25067,0.70759,1.2634,0.31591,-0.81505,-0.4386,-0.0036623,-0.94952,-1.6243,-0.71121,0.093364,-0.40094,-0.48275,0.82546,1.5696,0.87271,0.7086,1.6645,1.7429,0.51825,0.07758,0.79781,0.65886,-0.52155,-0.537,0.55892,0.69012,0.036734,0.64543,2.1152,2.2911,1.7439,2.3932,3.447,2.95,1.8801,2.1612,2.6826,1.7896,0.75412,1.2435,1.8675,1.1117,0.55194,1.5243,2.2863,1.6025,1.171,2.0311,2.2742,0.98784,0.12307,0.39161,-0.067916,-1.8402,-2.7518,-2.36,-2.7482,-4.1284,-4.296,-3.3294,-3.369,-4.1793,-3.7192,-2.4167,-2.4344,-3.2459,-2.8245,-1.9561,-2.5323,-3.6072,-3.3229,-2.667,-3.3935,-4.1826,-3.3796,-2.4146,-2.7631,-2.9539,-1.6817,-0.57179,-0.94238,-1.1496,-0.074771,0.40523,-0.62008,-1.195,-0.52068,-0.50994,-1.7486,-2.1158,-1.1229,-0.90038,-1.6704,-1.2934,0.19117,0.59238,-0.01633,0.41796,1.6071,1.4292,0.34801,0.44202,1.1051,0.35537,-0.85115,-0.59718,0.087651,-0.5203,-1.2146,-0.33297,0.77321,0.44165,0.11009,1.2163,2.0686,1.345,0.73705,1.4219,1.6172,0.32282,-0.45618,0.14827,0.24228,-0.89755,-1.1047,0.1137,0.54798,-0.11934,0.22328,1.6493,1.9384,1.139,1.3029,2.2079,1.8114,0.57271,0.52484,1.1698,0.47771,-0.63551,-0.24342,0.68491,0.33118,-0.18593,0.83603,2.0204,1.7123,1.2466,2.1237,2.7802,1.786,0.94228,1.4224,1.5308,0.25083,-0.47185,0.24996,0.55419,-0.31594,-0.36294,0.93952,1.5167,0.8822,1.1062,2.3365,2.4032,1.3452,1.2207,1.9346,1.3453,-0.016904,-0.12491,0.58303,0.069778,-0.89439,-0.35832,0.7654,0.56816,0.060184,0.93923,2.0288,1.5276,0.74243,1.3663,1.8264,0.73224,-0.24866,0.214,0.40718,-0.72139,-1.277,-0.3112,0.27944,-0.35564,-0.29703,1.0555,1.6348,0.95209,0.99533,2.0033,1.9292,0.69011,0.43391,1.0662,0.53754,-0.77507,-0.75536,0.1712,-0.051582,-0.80718,-0.12167,1.1572,1.046,0.49301,1.2389,2.1519,1.4771,0.56042,1.0246,1.3717,0.26991,-0.64837,-0.034054,0.39349,-0.44005,-0.73397,0.42769,1.2061,0.66742,0.72509,2.0132,2.4356,1.4904,1.2417,2.0264,1.8056,0.4258,0.1088,0.80125,0.49886,-0.56497,-0.29023,0.87193,0.87504,0.3327,1.105,2.3388,2.1443,1.397,1.8958,2.5665,1.7073,0.55309,0.84994,1.1902,0.16584,-0.70614,0.010522,0.66597,0.040427,-0.16119,1.0681,1.8751,1.2323,1.036,2.0898,2.2568,1.0616,0.58598,1.2012,0.89584,-0.51231,-0.8374,-0.052801,-0.19118,-1.0868,-0.75097,0.51826,0.63724,-0.0028242,0.59585,1.6543,1.2202,0.16819,0.39004,0.89961,-0.16253,-1.3947,-1.123,-0.68344,-1.5486,-2.2754,-1.4392,-0.62137,-1.1515,-1.3226,-0.10848,0.6446,-0.13443,-0.52194,0.23167,0.24888,-1.0972,-1.7185,-1.1083,-1.3261,-2.5442,-2.7208,-1.6752,-1.5616,-2.2822,-1.7783,-0.41528,-0.29375,-1.0495,-0.61794,0.28306,-0.26156,-1.4939,-1.3775,-0.8797,-1.7399,-2.8208,-2.3367,-1.5974,-2.1499,-2.6023,-1.5112,-0.46607,-0.97755,-1.319,-0.2798,0.29164,-0.70468,-1.3416,-0.71923,-0.75416,-2.0913,-2.6274,-1.8284,-1.7606,-2.7188,-2.6117,-1.3123,-0.94292,-1.5497,-1.1064,0.17945,0.1536,-0.83038,-0.68965,0.10023,-0.54419,-1.8164,-1.7283,-1.1296,-1.8044,-2.723,-2.0331,-1.0532,-1.4038,-1.7669,-0.63913,0.34335,-0.25551,-0.73057,0.0639,0.46456,-0.68325,-1.4851,-0.90328,-0.90866,-2.1539,-2.5715,-1.5591,-1.1704,-1.9148,-1.6515,-0.23899,0.16215,-0.53133,-0.24893,0.83153,0.5472,-0.664,-0.73242,-0.1617,-0.89322,-2.1787,-2.0418,-1.2621,-1.6819,-2.3316,-1.4136,-0.19015,-0.40029,-0.78474,0.17978,1.0074,0.20846,-0.58172,-0.073456,0.10768,-1.139,-1.9692,-1.3446,-1.1327,-2.0699,-2.2282,-1.0327,-0.46373,-1.0621,-0.80137,0.55116,0.84791,-0.041539,0.010908,0.86703,0.44787,-0.90545,-1.0331,-0.39539,-0.9266,-2.0449,-1.6583,-0.57499,-0.7866,-1.3234,-0.37592,0.83685,0.50771,-0.085478,0.64644,1.2657,0.29685,-0.63795,-0.20152,0.006265,-1.1371,-1.859,-1.0236,-0.55506,-1.3119,-1.334,-0.011265,0.64619,-0.0043543,0.084064,1.2547,1.3336,0.12569,-0.12181,0.54864,0.046483,-1.3411,-1.4732,-0.66928,-0.93118,-1.7995,-1.2221,0.052643,-0.018996,-0.54228,0.29127,1.3565,0.8865,0.04569,0.55567,0.97228,-0.1403,-1.2154,-0.79889,-0.5123,-1.4891,-2.0474,-1.0544,-0.34767,-0.93353,-0.9001,0.41276,0.98627,0.18429,0.061168,0.96699,0.8279,-0.4983,-0.88916,-0.24655,-0.60086,-1.827,-1.7363,-0.66883,-0.70179,-1.3547,-0.64181,0.73192,0.66007,0.039883,0.6674,1.5293,0.85425,-0.21546,0.11161,0.49369,-0.56714,-1.5804,-1.0258,-0.53369,-1.2612,-1.626,-0.4704,0.37612,-0.16737,-0.25025,0.8864,1.2947,0.27327,-0.16703,0.56715,0.35274,-1.0285,-1.4514,-0.7263,-0.89972,-1.9379,-1.7061,-0.4526,-0.26676,-0.81357,-0.13095,1.1393,0.93817,0.094694,0.46301,1.1208,0.29388,-0.90594,-0.63291,-0.20182,-1.1034,-1.9438,-1.1243,-0.29218,-0.77581,-1.0015,0.195,1.0695,0.39939,0.10904,1.043,1.2208,-0.0011056,-0.57219,0.041067,-0.14198,-1.4344,-1.7011,-0.76728,-0.70708,-1.4977,-1.0605,0.2801,0.46754,-0.20298,0.25438,1.31,0.91092,-0.23148,-0.057935,0.44973,-0.46627,-1.6841,-1.3836,-0.72486,-1.3823,-1.9844,-1.0064,0.037459,-0.39973,-0.65115,0.47186,1.1858,0.29188,-0.31681,0.32565,0.3254,-0.99813,-1.6581,-0.9653,-0.981,-2.0733,-2.1441,-0.92599,-0.57988,-1.2061,-0.74293,0.63097,0.76746,-0.088078,0.14751,0.95191,0.34391,-0.93964,-0.90958,-0.3875,-1.1613,-2.2081,-1.7243,-0.81521,-1.2279,-1.6435
