0.13,0.69,2.118,4.938,9.69,16.855,26.798,-25.813,-27.717,3.22,-12.36,28.341,-31.095,16.99,-7.294,21.051,23.483,-31.428,-13.497,-1.155,-28.967,28.28,20.898,21.888,2.615,22.29,-25.452,21.546,30.963,14.196,-14.333,25.124,31.271,30.356,-24.962,-10.524,-4.882,25.836,31.988,-1.522,-3.3,-4.273,-13.885,-29.14,24.437,-21.52,-27.054,9.616,21.721,-12.915,-23.674,26.802,20.101,-18.643,2.254,-7.534,-13.075,9.603,8.61,-29.314,-29.325,-18.916,-5.086,16.148,-12.402,30.881,3.053,-11.906,-31.504,12.268,18.225,18.601,-26.171,15.01,2.684,20.094,-19.263,-4.673,-12.904,-0.65,-5.705,-32.306,-1.165,-4.739,-4.792,28.007,-18.541,24.883,-27.141,28.166,18.438,15.032,-1.802,-26.176,25.289,-5.698,29.06,5.067,17.262,-12.894,29.562,3.207,-2.863,-0.486,17.174,-1.255,6.007,13.062,21.692,-18.788,22.902,13.03,-23.342,12.553,-26.35,15.264,16.271,6.258,17.597,12.333,-8.746,-25.46,-11.557,-8.845,-18.88,-22.876,4.579,21.136,24.819,-31.507,-9.582,30.147,6.303,-25.303,-16.957,0.283,27.822,16.532,-31.709,-23.415,30.411,2.834,-2.336,15.357,5.661,-30.993,-2.913,11.271,-4.407,-31.71,27.332,27.236,-6.107,-32.486,-11.437,23.612,8.614,8.588,8.441,22.657,11.547,-17.4,31.313,14.508,28.174,4.357,5.674,15.374,-18.995,-25.293,-15.268,25.877,-9.054,-2.879,-13.356,24.495,25.505,-21.109,-20.759,23.507,-5.197,6.02,-1.559,-27.63,23.048,10.449,-30.804,13.777,12.653,1.605,26.146,-3.515,-28.483,6.583,12.728,-21.476,-0.791,6.936,-1.781,1.98,-7.929,-13.596,21.178,2.739,-10.712,-28.507,-25.011,-28.187,-21.202,31.316,-30.682,28.763,2.624,32.624,9.626,-13.843,18.681,22.959,-6.793,29.543,1.776,20.769,31.245,-27.011,-6.907,-16.494,-5.333,13.254,-2.803,30.177,-21.472,22.905,2.93,16.44,6.104,-18.485,-16.249,-4.164,-24.642,7.282,25.216,32.507,0.511,22.792,-27.925,32.23,-22.156,18.341,9.936,-7.754,21.745,20.769,-7.715,-21.033,-30.349,-5.311,32.589,-25.639,18.747,17.016,7.284,-19.192,-25.825,-26.341,9.046,-6.318,-2.037,24.578,-23.243,-8.738,30.239,-23.013,27.825,-31.076,18.799,-26.058,-10.429,-27.447,-10.803,-26.179,6.13,24.214,-25.673,15.203,-15.134,-10.053,-14.542,-7.558,-5.569,25.489,6.183,14.353,-6.852,28.246,-4.537,20.698,-0.416,-1.706,22.54,-18.541,17.754,32.315,23.466,-27.695,-12.122,23.715,30.863,-31.5,6.24,-10.135,30.253,17.711,18.838,-22.869,-15.234,-8.089,19.798,-11.467,-18.068,16.973,8.457,-30.973,23.463,-1.526,2.441,-1.623,16.932,-15.606,-12.115,-20.268,-13.036,2.128,2.184,26.668,6.723,31.251,-13.421,11.014,11.036,-5.363,18.277,19.826,22.38,20.826,-2.387,-1.249,26.935,-3.025,-5.381,-23.74,-24.851,-9.947,2.807,-9.71,-2.446,28.853,1.612,4.263,-4.651,9.429,-19.896,1.932,-32.707,19.208,1.1,-31.364,5.86,-2.749,14.405,9.681,17.972,-23.31,-14.45,7.535,10.979,-27.094,11.367,27.671,32.591,22.882,-10.175,-9.725,-28.928,32.516,1.291,-1.916,2.173,-6.459,22.071,30.57,-13.857,6.555,-1.948,-21.548,17.087,-2.27,-1.336,-18.32,-9.201,-29.581,24.196,-15.308,-21.213,-9.096,4.364,4.791,-18.04,-3.938,-1.152,29.49,30.652,-25.19,-12.915,-19.244,-21.033,-11.543,6.64,26.617,-25,23.87,-27.658,1.738,-14.356,0.02,8.077,-9.295,7.26,12.775,-14.422,-14.075,-28.39,-10.037,-8.616,19.695,24.385,-15.559,29.715,10.189,-3.675,22.086,31.195,-0.476,-10.134,30.327,-5.39,-31.598,-5.797,19.179,18.952,-11.976,-2.05,13.027,17.241,7.279,-12.733,30.424,32.039,17.389,5.509,9.388,-29.039,6.183,30.659,8.981,2.801,-21.164,-4.355,13.795,18.747,11.013,-1.042,-6.264,5.945,-21.926,27.8,6.96,-5.469,-30.859,-3.498,-25.197,2.744,-4.749,-9.003,16.408,20.99,-7.96,4.31,29.754,-5.023,16.179,17.407,-25.283,26.364,-31.11,-3.098,2.535,13.233,-14.065,-16.405,-22.024,-32.524,29.576,1.931,30.551,-9.575,-22.613,-19.596,3.878,-7.319,4.78,11.175,11.658,20.331,-9.879,-14.816,-19.195,-20.715,-4.339,-17.502,2.592,29.169,-3.485,30.28,-2.763,-7.889,6.288,-17.837,-19.059,-20.826,-17.717,8.698,13.681,-4.017,-23.345,-15.646,-19.758,31.151,-20.589,-17.067,-4.132,12.632,-17.606,-25.829,-28.395,-14.541,-28.246,-0.16,-15.996,-23.389,22.252,21.22,19.402,-5.635,26.749,-30.846,-14.072,-31.585,23.748,14.701,-26.088,12.069,-6.073,18.313,16.734,-16.31,12.056,27.782,20.332,12.627,-25.403,-11.745,-22.429,0.789,-26.631,20.424,16.746,1.571,22.033,-11.118,26.53,11.299,-15.073,-2.846,26.443,19.876,-14.682,25.588,7.169,-30.503,29.942,-7.614,5.097,28.209,3.002,4.667,28.516,31.353,25.103,-18.715,-10.403,-16.636,29.035,-17.999,17.153,-27.589,12.467,-29.868,8.372,25.899,8.388,-12.584,11.855,-1.93,10.789,-22.003,-27.548,-7.269,1.015,14.385,7.919,7.104,-8.072,-9.868,-17.963,-5.594,5.765,-24.86,-8.004,-4.497,-5.728,29.337,18.087,30.66,1.744,10.132,-6.906,27.987,-17.282,-22.635,-29.837,-20.312,-15.486,13.396,-17.446,32.669,-7.153,-32.522,-20.536,7.362,11.39,16.15,7.78,22.456,-17.385,-32.126,-11.363,18.989,19.497,17.621,3.236,16.072,-18.698,-19.859,23.381,18.832,-26.897,6.856,10.535,-20.226,28.844,-20.579,4.77,22.815,-26.489,17.053,-3.628,23.579,-7.569,-26.168,-18.954,-3.445,-9.258,-0.331,19.115,25.842,-8.054,24.9,14.898,29.697,13.923,-5.427,-31.242,-14.188,-20.53,-29.005,20.641,-1.43,-29.907,18.789,23.559,-16.763,22.32,-25.535,23.34,28.286,-20.301,0.762,-6.512,-32.473,-16.122,-14.397,0.236,25.552,-20.526,20.39,-0.282,-24.03,32.668,-13.793,17.892,-6.933,-22.643,-9.113,27.555,3.229,9.411,9.436,-23.056,27.623,-4.512,3.142,28.4,-17.618,24.146,9.238,1.055,21.553,2.53,-23.443,19.971,18.26,-17.502,-15.864,-20.433,8.547,12.115,25.762,-6.742,22.256,17.068,-1.952,-26.61,10.173,-6.214,5.574,10.271,-11.746,-2.418,-7.99,14.598,12.237,26.532,6.234,-3.441,16.015,0.635,-9.979,1.661,-26.745,12.91,28.165,-22.614,-15.588,-31.908,25.329,-7.83,3.232,-14.559,-24.213,-7.396,-24.224,-29.948,-2.416,-0.768,18.779,10.683,26.287,23.241,-12.457,-11.641,-8.79,-16.926,29.662,24.984,-3.3,-32.008,21.977,-8.513,13.336,18.519,-17.804,-27.536,24.634,18.869,-20.469,-1.879,-15.394,-25.431,-7.164,-11.55,14.583,-31.929,18.461,-23.928,-27.638,8.351,20.559,-8.436,-3.494,10.481,29.857,-3.78,-32.054,-15.358,3.197,13.411,23.114,-17.831,19.801,-0.441,9.845,-30.402,-5.933,9.468,-5.256,24.727,9.777,-5.505,15.545,-32.666,24.068,3.03,-23.633,-3.424,30.768,9.884,-7.602,23.173,0.214,32.233,-18.308,12.088,8.594,5.011,-29.673,-19.88,16.212,17.305,-21.415,-9.265,-22.978,-9.299,6.869,32.69,23.756,-14.702,12.685,29.85,22.339,8.982,22.029,28.441,-30.358,-15.884,17.538,-3.434,-15.638,-31.736,32.723,29.64,-11.605,20.897,-4.667,14.591,13.85,-9.71,-27.34,0.259,-21.753,27.282,21.413,1.243,16.227,-20.406,17.889,8.923,-4.842,26.292,14.529,18.918,27.969,-1.909,10.403,-5.411,17.033,1.01,11.957,-24.522,26.523,-18.077,-1.508,-24.569,-31.438,-31.495,1.553,-25.443,17.094,14.219,16.355,14.183,-28.468,-21.619,-27.722,25.081,-2.994,0.628,-11.703,-24.965,3.94,-8.111,7.212,-17.625,-5.904,-21.956,10.608,24.906,28.037,-3.338,29.423,2.826,-28.378,2.414,23.107,-27.214,5.865,24.076,21.016,-28.869,-22.765,-11.594,19.178,-18.526,17.579,26.707,5.487,-0.451,4.696,-6.781,-2.856,6.071,-9.117,-14.95,-18.963,18.535,20.793,0.323,11.774,-11.093,16.508,-25.912,-6.929,-25.425,-10.911,-20.673,-31.756,14.022,-16.615,3.929,-21.722,-18.901,25.661,26.317,-3.051,-1.373,-27.008,11.878,-0.309,4.472,-25.574,6.947,-9.291,-3.367,-25.55,21.898,27,-6.249,-16.766,7.81,-12.44,10.049,30.902,15.25,5.842,10.237,17.479,9.605,-30.883,14.434,-21.13,-17.221,1.443,9.466,-14.042,-17.225,12.185,-1.338,-30.059,-0.089,-26.323,-30.845,12.627,-31.744,-23.831,22.291,19.134,-8.431,15.802,-18.342,-27.745,18.367,-12.744,20.489,-27.296,-18.77,32.752,-23.622,17.869,-27.308,26.972,-13.56,-31.387,24.636,31.248,0.319,8.704,19.436,12.485,-19.727,-10.592,-1.239,-12.133,16.247,-25.919,19.039,14.989,-28.885,32.646,-11.051,21.676,9.761,-29.472,-13.372,25.476,3.56,25.988,7.589,-15.842,-21.12,4.623,0.572,12.991,0.547,18.901,29.117,19.177,-6.906,28.484,26.655,18.63,27.77,3.866,2.304,-11.499,22.137,0.075,22.479,7.136,-4.022,18.414,26.257,8.222,-25.989,8.419,19.213,-23.663,18.293,10.928,-24.707,5.264,15.218,-20.713,-27.561,-26.091,-14.259,20.459,27.219,-0.109,22.129,8.601,5.004,-18.578,8.689,-3.991,-11.765,22.724,-5.593,11.974,5.342,27.737,-14.615,-5.662,-11.392,22.913,2.993,-22.513,-9.114,11.479,-24.014,15.62,3.034,-28.11,28.991,-32.443,-6.555,15.216,10.27,-5.771,-0.697,-5.759,-11.379,10.425,25.427,-24.465,0.41,-18.574,24.912,-2.077,5.049,-15.245,3.693,-18.705,-22,-19.344,8.414,26.437,-19.811,14.258,14.513,24.801,26.555,-25.223,18.393,-21.767,9.212,5.689,17.748,30.723,1.32,12.745,-2.633,24.084,18.052,-19.81,14.986,-5.341,30.87,2.358,26.302,-14.234,1.036,22.652,-6.99,-6.408,27.41,-7.559,18.198,-5.611,-22.102,31.273,10.107,25.144,28.32,-30.754,4.34,32.522,-23.146,-14.818,24.751,-19.911,-19.101,-10.118,26.446,2.051,-9.842,-1.136,2.867,30.939,1.241,-8.55,11.693,-28.654,11.232,29.64,22.457,-30.986,-22.526,1.394,-7.347,-22.592,13.875,-32.457,30.263,-9.214,7.349,-5.206,28.396,-15.571,-5.047,29.352,-17.119,-1.795,-16.319,13.612,31.744,-5.606,4.835,21.787,6.628,-4.461,-10.627,-28.059,-12.119,-28.413,13.44,-0.327,1.637,-28.905,8.478,4.533,31.124,-27.738,-27.776,12.647,-1.624,12.102,11.003,30.787,7.365,-27.691,-1.05,-30.241,25.013,9.474,-17.992,30.215,-24.022,5.944,-10.302,-4.497,-21.166,-19.484,9.769,-7.401,25.942,9.032,26.976,-22.983,13.745,-6.341,-16.323,9.895,7.622,11.615,-32.284,-13.129,-23.191,26.268,32.085,14.25,-15.501,15.062,-3.453,14.604,-28.704,27.013,-22.544,5.366,-11.919,5.913,25.901,31.587,17.973,-12.515,12.339,-12.168,5.836,-25.877,-8.436,-31.118,5.061,9.078,11.556,31.436,12.839,6.021,-27.175,-28.624,30.118,25.077,-21.242,-17.393,13.391,-4.417,-25.695,-19.672,31.625,4.233,-8.052,-18.92,-25.745,-18.28,15.414,19.69,-17.521,-17.688,-3.846,21.085,-1.438,-13.762,22.62,-2.243,13.317,-7.418,-16.004,22.623,-1.529,14.865,-2.726,-3.886,-17.752,24.972,30.806,-23.926,8.629,3.533,-10.951,-2.232,-7.22,-23.805,-30.583,-0.439,25.198,-20.929,-7.479,6.588,11.673,24.168,4.652,26.042,5.269,-3.486,-20.099,-30.597,-6.877,14.65,-27.199,4.153,-12.437,27.707,-9.061,-17.946,6.023,17.814,22.006,-18.664,-22.143,5.328,14.987,12.133,28.014,-30.401,30.536,-18.4,22.425,-1.473,6.524,-15.107,4.267,-10.733,4.969,-24.233,-30.409,-19.334,-31.742,13.908,-19.758,-21.608,23.282,13.74,8.479,2.582,27.176,-6.487,-30.874,20.195,1.81,22.134,29.878,-28.316,1.795,17.978,8.743,9.55,6.959,32.171,0.74,-14.255,-7.286,-6.849,12.989,-31.531,2.021,10.894,-10.945,-20.331,-23.212,17.41,20.445,-5.852,-10,5.712,12.933,-23.949,-4.878,20.432,3.821,-26.604,-9.661,-11.036,-14.542,-32.351,-21.776,12.862,-21.011,22.118,-17.75,-24.368,-30.726,-4.824,-20.767,7.123,29.181,4.701,-28.204,1.039,-31.882,6.014,19.349,16.318,-10.931,-9.773,26.518,14.677,-24.823,-23.347,-32.758,-22.492,6.661,-27.156,-31.764,21.744,-6.263,17.804,7.528,-16.903,13.712,-17.848,31.373,9.718,-20.449,31.28,-11.417,-26.748,-32.266,21.312,8.476,5.388,-23.915,-30.909,-0.412,-2.626,-4.578,5.729,27.99,-9.784,-2.751,23.695,-14.935,-17.965,-9.822,-5.762,-13.615,30.025,13.876,25.775,-28.051,17.477,27.847,10.26,-25.054,-1.386,-21.375,7.22,-8.59,28.633,27.865,20.736,27.781,-5.034,-25.62,-4.95,3.187,-19.663,-4.7,15.235,29.338,-25.862,-28.813,12.769,28.577,-3.43,-10.534,-18.092,-28.578,-32.505,-16.077,-31.766,-22.534,-19.772,-26.156,-29.352,-11.595,-21.537,0.772,25.58,-15.061,3.432,13.564,-1.838,-31.459,14.451,-16.392,29.034,29.428,15.608,21.98,12.935,-8.452,-20.063,5.767,28.029,-20.227,-7.448,7.528,15.139,31.726,17.75,-19.603,15.14,-20.6,-29.53,-12.15,-16.748,25.67,30.858,-12.504,-10.774,32.256,-0.523,4.156,-11.495,19.701,15.773,-30.757,-22.476,-25.99,21.559,-29.02,-6.76,-10.575,10.504,-26.119,11.197,5.115,1.974,-11.538,-8.925,-14.715,-7.714,-13.921,-11.332,-24.003,-27.642,21.339,-29.93,-5.947,2.022,-13.155,-15.567,-20.182,2.009,30.072,22.444,1.789,18.895,-2.595,10.919,-4.59,29.308,-17.202,-21.383,-22.56,-0.285,25.112,17.113,4.646,-21.594,-21.235,-2.848,2.41,24.043,-15.595,32.148,3.827,9.354,8.997,29.149,-7.932,-17.929,15.873,7.807,-29.841,27.591,6.956,16.999,21.213,-14.769,14.567,0.183,11.997,-2.773,-14.758,-25.099,16.442,-21.924,-6.534,-27.458,-3.616,17.003,-1.912,-17.535,-21.233,-22.353,28.465,2.174,-29.249,26.27,-10.193,-21.17,-28.56,13.561,-22.179,5.698,14.83,26.289,-23.384,-28.289,-16.414,-10.402,-25.989,-6.154,-0.449,30.391,30.069,-27.358,-14.983,-17.819,-11.286,12.37,-14.44,14.641,8.063,-7.532,-17.719,-16.132,-1.428,24.895,-5.547,17.274,7.15,-4.1,1.865,-32.007,9.058,-26.802,1.997,25.01,12.838,28.045,-30.275,6.12,10.586,-0.882,-10.716,-3.145,-31.756,23.869,17.183,27.774,-31.529,17.246,-12.476,10.322,18.513,-7.429,6.49,-30.789,-10.07,-7.869,20.198,-27.976,23.078,-8.992,13.779,31.273,29.436,19.838,25.172,3.938,23.155,-6.882,28.037,-8.554,-20.296,-11.749,29.749,-9.124,-17.805,6.451,12.967,0.282,-7.941,20.373,-16.22,-1.472,2.649,-9.579,-14.769,20.751,-2.429,-32.009,-16.016,21.754,24.297,-4.707,-31.24,-11.881,27.114,29.692,2.012,-19.159,11.822,4.461,16.165,-30.95,-2.02,-12.408,-14.81,-22.373,-9.036,-0.185,24.252,-28.506,-24.481,-6.609,-30.64,-16.044,-27.768,8,21.451,17.379,-28.754,-18.248,-7.834,11.7,14.208,27.387,-30.911,-16.562,-30.47,-11.148,-26.647,2.281,14.634,23.971,12.423,16.704,27.939,16.804,15.811,16.319,-8.393,-22.308,-30.637,8.183,18.676,13.968,-16.864,-27.445,-17.338,-8.754,-30.713,22.053,-28.381,-3.516,21.429,-7.21,9.842,31.021,19.43,13.767,17.374,15.997,-10.147,-13.22,13.258,-11.649,1.523,11.758,-12.056,-23.738,-13.07,10.632,29.961,26.932,-12.5,-30.641,-10.649,-24.858,21.848,25.144,0.543,20.295,-26.036,12.263,-9.528,-23.982,-3.506,-10.87,-9.385,13.986,-7.39,31.341,-29.536,12.557,-26.901,-25.848,1.961,-21.152,8.3,0.016,-16.217,-22.437,-9.302,26.425,18.308,10.532,28.123,16.494,24.398,10.805,30.583,-21.902,19.02,25.648,13.913,1.926,6.292,-25.655,27.349,19.443,30.685,-25.86,27.793,4.882,-29.454,-29.563,32.343,-28.068,-2.606,9.73,-24.213,-32.468,29.574,-13.287,-15.239,-28.829,4.07,-12.875,30.1,-5.957,-25.508,-32.607,-13.11,-12.68,-31.545,18.786,-9.791,-23.554,-24.506,5.025,22.819,31.088,-11.753,-27.849,-26.31,8.651,-29.917,-24.784,31.957,26.818,6.04,20.71,-16.347,20.269,7.295,-13.388,8.005,-15.586,-23.843,-26.637,-0.254,24.897,-2.311,-0.893,28.58,-20.031,-20.32,-18.379,-4.365,-8.76,-9.742,-29.155,26.043,23.935,10.842,-18.905,-28.356,-31.978,-0.837,-22.026,-24.941,-6.043,4.794,32.764,-6.068,31.018,-23.645,3.506,25.595,-23.776,9.909,31.346,-27.493,-9.795,-6.716,-16.18,9.426,-0.375,-28.377,-16.707,-29.723,18.068,5.876,-1.528,8.482,21.005,10.597,17.834,-23.011,-18.896,-13.627,21.755,14.479,-12.023,9.427,23.344,-9.498,19.474,7.777,32.416,-19.16,-0.876,3.688,11.708,20.755,19.678,-4.233,4.614,-6.454,-1.223,27.58,5.898,31.828,6.441,16.93,28.074,17.367,-26.537,25.261,16.656,10.563,-31.271,9.104,-25.269,-1.082,3.092,17.395,-11.779,29.341,-13.88,-2.664,-9.281,2.047,-18.167,-19.476,22.526,-16.881,17.842,-4.358,-0.493,4.587,4.075,1.619,5.807,26.319,5.898,-2.313,-31.878,-20.083,-0.509,18.009,-25.148,-5.886,4.096,-17.544,1.633,-30.133,-3.797,4.275,-26.789,-20.037,3.736,-20.253,31.759,23.406,-19.489,4.726,18.501,2.63,-29.149,17.237,-5.985,-7.705,6.185,-16.214,-7.351,14.801,-6.158,-2.53,10.346,-20.332,-23.32,-11.093,30.936,-4.03,2.138,-6.982,-30.421,26.947,24.722,-2.826,-6.96,-6.038,18.076,31.981,-16.285,20.657,31.074,-5.093,7.536,6.017,-6.379,5.893,21.926,-2.73,16.691,15.178,-1.359,7.269,24.988,11.255,-12.296,3.259,-20.334,-10.953,32.077,8.269,-15.227,-32.164,-0.855,-2.083,-29.474,31.411,-2.869,-31.374,-29.126,-12.631,-15.814,-8.605,-0.622,-18.647,-26.215,-27.882,18.563,-27.38,26.496,-27.141,-24.607,20.007,7.888,15.079,-7.7,-29.17,16.105,0.203,-11.716,-2.997,16.493,25.676,2.337,-5.258,11.439,-25.674,-24.181,-22.466,15.953,25.35,-31.316,28.754,0.861,-9.734,-28.181,-6.37,-1.136,21.686,3.014,-18.173,-26.989,-22.592,-11.094,-0.813,0.695,-11.723,25.366,-0.327,-2.011,-8.433,32.494,4.981,-3.091,-17.152,18.825,-7.433,-5.549,0.263,0.401,-5.43,-12.283,-12.964,-0.164,32.146,22.371,19.713,-12.3,-12.561,-14.896,-27.168,23.037,-29.547,26.132,19.157,19.011,3.055,-25.317,15.893,-31.604,-18.281,-0.715,5.879,9.588,28.915,18.512,-23.039,-8.354,-20.13,-11.131,-10.792,-14.281,-0.42,-9.486,27.777,23.782,28.549,19.102,7.672,22.011,26.595,27.636,-14.543,-21.748,-3.867,-12.17,23.234,20.998,-26.638,-22.712,31.515,20.376,-8.112,0.686,28.973,26.561,3.147,-2.96,-11.735,-1.771,-1.109,9.381,2.872,1.512,-17.899,-29.775,10.989,18.578,-8.909,-30.692,8.166,27.184,26.165,-20.696,-13.747,-7.653,9.181,12.788,32.506,-12.864,21.012,32.75,17.23,18.131,29.665,23.141,30.299,-24.471,9.298,-30.277,-32.02,30.805,6.391,13.689,19.411,-11.561,23.698,13.133,24.099,2.169,-23.842,10.964,-20.549,13.892,19.683,6.708,-30.744,27.707,12.025,-28.496,-10.975,16.973,18.215,-31.714,-13.367,-22.162,22.493,8.662,15.113,2.453,13.204,-9.266,-27.051,-28.132,-15.11,2.671,14.359,10.793,-13.807,4.289,19.395,6.705,22.711,21.888,-16.262,-29.155,9.481,-28.713,5.993,-23.248,27.619,18.004,23.98,16.594,-12.383,7.147,-26.713,-16.985,15.193,-5.288,32.108,-20.619,-14.093,-9.945,-29.635,-4.672,-32.565,-9.836,-17.062,-11.865,-30.759,-9.64,21.201,-9.048,20.581,-26.275,9.506,6.932,-5.795,2.121,-8.285,29.169,22.175,16.166,-15.222,4.096,-11.227,-11.676,-22.121,-32.701,-17.9,-14.995,-18.869,-4.068,-5.42,-14.384,-2.122,-0.744,0.024,29.666,-9.849,3.739,14.775,22.684,-11.459,-5.278,-29.321,-17.732,18.14,30.99,30.838,-10.929,-3.451,-11.431,-31.595,-27.387,-18.279,18.291,-10.444,27.831,21.947,26.181,-31.039,-4.775,-0.338,-28.234,15.869,9.664,6.512,4.856,-22.645,21.471,13.995,10.459,12.566,-3.963,-5.087,0.052,-16.759,-21.294,-20.407,26.208,-23.229,22.92,22.963,28.016,-22.75,31.009,32.575,28.595,25.587,10.072,27.739,13.237,-8.598,27.271,-4.067,32.56,-20.325,27.843,-24.227,-4.36,15.41,-11.218,22.994,17.292,-13.96,-1.693,5.731,-22.438,29.699,-1.083,11.597,-16.243,8.298,-15.856,-1.86,15.61,14.861,-14.778,-9.631,-12.705,20.611,-27.945,-3.951,22.686,16.872,-32.15,11.83,2.251,10.88,5.904,-22.576,-5.185,21.708,-23.209,-29.336,-9.526,30.953,25.304,21.485,-15.878,-23.418,-32.38,17.274,20.982,11.037,15.815,-8.567,-0.733,9.368,18.636,-27.665,-0.603,31.248,-18.808,-31.329,-4.854,3.848,-13.953,24.719,-30.764,-21.009,6.588,-21.947,18.284,-2.765,14.207,-0.674,11.174,28.839,-3.278,-14.635,-16.936,6.126,15.523,18.525,-21.335,-22.143,9.4,24.1,27.036,-16.049,-19.147,15.339,-23.855,-16.319,-13.467,-9.241,29.529,11.451,-0.373,-9.644,14.337,-18.222,24.692,29.757,-17.26,-12.23,-9.403,1.303,-6.095,-3.897,-8.554,11.251,-26.965,18.224,-23.485,18.446,-11.189,-2.208,1.996,22.947,-21.458,15.737,-28.574,22.773,19.314,7.956,-7.302,22.444,27.162,23.614,2.87,11.882,-15.036,11.679,-22.307,20.073,-21.587,-27.275,-24.752,22.873,-20.558,-20.113,4.046,25.371,19.125,32.646,8.707,-17.693,27.798,27.056,-12.323,-21.261,21.332,-22.848,-14.223,-31.725,17.269,28.233,17.469,-7.379,22.572,-4.087,-2.209,-3.279,-23.606,-2.591,15.1,7.561,-31.027,-30.341,-27.101,27.969,19.029,-30.524,-31.779,-11.412,17.758,-13.805,8.159,3.695,10.672,-13.606,-10.673,-14.646,-32.251,10.767,16.715,19.749,-18.612,-32.109,19.09,22.174,8.423,9.026,-15.658,-0.14,28.674,3.661,-16.788,11.397,-14.499,13.983,25.187,4.715,-30.037,17.526,1.098,12.332,-20.438,28.82,29.904,15.219,25.772,-31.71,31.374,-20.585,6.506,20.165,2.711,-22.78,-16.483,-3.375,30.205,-17.265,-19.976,-26.793,-30.848,0.889,-23.518,23.965,25.935,30.568,27.106,-21.015,-23.193,25.125,19.059,17.625,18.255,-10.467,24.207,-4.789,21.416,-8.96,30.212,28.714,-20.608,-5.937,24.684,19.432,0.686,23.968,19.239,0.245,19.961,9.305,-15.364,1.934,-5.279,-18.905,17.737,-27.713,-25.174,-3.167,3.281,28.435,2.818,17.671,28.786,0.135,-26.683,21.005,19.593,-29.604,2.832,21.635,-28.919,23.783,-28.752,-14.948,-3.879,28.054,13.653,-13.479,24.381,14.523,-29.834,30.61,-24.253,-21.683,-23.221,4.21,1.987,9.749,-23.097,16.614,-27.978,-20.628,29.89,-20.57,-25.145,15.522,28.38,-15.352,15.616,-22.285,15.328,-8.159,-11.443,-18.55,31.495,31.961,12.005,-2.737,7.789,-8.416,3.246,8,0.048,-10.44,-6.631,28.679,-21.944,10.422,8.594,0.94,16.494,13.78,-9.015,32.634,-13.499,8.866,-16.715,11.384,19.176,-7.364,16.453,10.668,27.528,-22.753,-18.018,-18.005,-28.404,-26.929,18.556,7.114,-10.209,17.668,0.931,-4.313,-11.926,-0.999,-3.123,-3.377,-31.998,-3.132,12.333,11.768,26.986,-30.146,-25.204,-2.842,-21.312,-2.477,-13.074,19.744,26.063,11.329,17.782,32.499,18.229,-0.599,26.892,23.4,-4.533,-9.459,2.031,-1.755,7.307,15.941,-6.402,-26.177,16.014,-16.51,-0.998,26.395,24.386,23.244,17.618,-13.418,-27.635,-24.947,-25.71,9.466,10.11,-2.592,-31.26,-22.725,27.772,-31.542,-4.428,-21.207,-17.946,20.963,18.661,-0.343,-31.059,-12.051,2.577,-21.802,28.526,-10.4,-11.786,7.176,27.946,-30.788,-1.075,-18.962,-14.261,-26.021,-7.142,-8.641,12.045,3.996,12.428,-9.86,-13.878,21.905,-30.043,-16.073,-2.286,-18.157,-3.327,4.034,-9.072,25.553,5.821,29.374,10.476,-11.896,-9.899,-31.616,-21.091,-13.329,-15.217,-18.026,-6.367,-29.809,-27.91,-28.755,-32.221,-23.936,15.01,-29.337,15.599,-30.057,-23.152,-17.813,-22.583,-21.652,10.229,32.324,-20.362,-13.444,-2.69,5.188,28.849,30.335,17.602,20.538,9.011,-4.343,12.299,28.502,-10.663,-28.878,-30.478,7.537,-14.709,25.387,7.538,-20.642,-2.983,-20.886,-9.908,22.294,-31.385,23.598,32.187,26.545,-6.271,-31.518,3.166,16.956,10.609,25.401,-16.156,29.14,-9.172,-27.246,-3.02,-24.235,-17.951,22.489,4.186,1.173,24.527,-12.984,-31.805,-16.345,14.753,29.239,-5.255,17.874,-9.433,-15.975,12.74,-5.011,15.273,26.541,-7.492,21.623,9.903,32.57,-24.337,-15.456,-24.277,32.731,-24.233,-8.06,18.548,14.006,21.095,-14.879,12.487,5.401,-17.582,16.359,-4.308,3.449,5.449,-17.009,-4.921,-3.532,31.218,-18.417,3.098,27.204,20.123,-27.787,20.49,18.834,-26.441,31.369,-14.651,21.584,23.1,10.298,2.009,13.589,-9.639,-13.944,32.041,11.012,18.846,-24.528,-5.796,-1.32,31.502,-11.797,-23.395,-8.274,-25.481,-17.345,-11.043,-3.995,20.779,18.582,-10.48,22.534,-29.537,-5.893,-19.699,32.4,11.017,14.063,-25.01,23.558,31.856,-32.315,-14.955,-28.234,-29.991,23.92,-27.195,-18.005,17.007,17.717,-10.981,-31.855,2.107,2.056,26.893,-0.207,-9.445,-3.099,-17.868,31.587,10.936,-32.227,31.101,16.21,14.717,-25.919,-20.112,-27.755,28.847,16.453,-12.314,11.783,21.825,28.506,13.24,13.412,21.589,10.176,13.339,23.77,15.6,25.147,-18.598,-27.14,18.386,-32.653,10.188,8.081,16.539,-21.006,-6.623,17.707,15.14,24.546,-16.217,-8.361,10.107,7.173,25.942,7.101,-15.016,-31.394,19.272,14.431,28.123,19.973,-31.886,-3.191,15.299,-23.787,-5.014,-17.555,29.602,-30.47,2.441,10.304,4.945,-5.646,-15.85,-21.515,-19.458,-7.218,17.025,-11.089,22.181,-32.134,-27.452,-28.486,6.395,31.104,31.268,11.653,-13.151,-25.356,-8.418,-15.296,8.944,30.281,-21.983,-24.232,22.329,-10.53,-25.044,-27.439,-7.354,-14.072,15.272,-10.438,23.554,-17.431,30.954,-12.003,-0.255,16.189,32.516,1.419,-3.427,6.219,-20.641,-12.27,18.417,19.413,-4.28,-19.399,15.739,7.346,10.805,13.192,-28.6,-31.519,2.541,30.06,-4.655,-19.736,-11.794,-16.162,-14.352,-30.209,28.388,29.421,19.663,-5.786,-9.098,-3.912,-26.182,16.182,-2.589,-27.218,11.03,-22.679,-7.7,16.182,4.122,-16.188,14.292,27.302,-28.732,11.325,-6.904,29.978,16.164,22.483,-3.737,32.614,17.905,21.508,-7.311,29.817,22.488,-23.081,22.296,-5.218,13.257,-15.872,-8.367,-5.749,28.569,30.837,32.363,-25.453,30.468,-6.714,-29.499,6.777,-23.858,22.286,-0.84,-23.652,-14.601,-31.928,30.828,11.317,-23.914,26.746,-0.196,28.053,-29.905,-26.738,-29.884,-1.612,8.385,-16.711,-7.513,3.527,6.258,3.828,6.048,24.682,4.783,1.592,-16.857,13.088,-7.449,25.504,32.607,-8.073,-19.031,-19.28,-5.469,-29.582,-28.403,-25.152,-14.817,20.657,-29.043,13.997,-24.906,1.326,-24.851,1.417,11.051,-5.15,-24.359,-11.302,3.186,27.53,22.197,-1.641,-8.835,-24.072,-30.248,7.328,-6.288,-13.53,-23.594,-10.032,0.47,26.246,-26.952,-25.949,-13.717,20.21,-21.182,-4.773,27.497,21.632,-5.617,-4.658,15.658,19.53,30.832,-32.627,-24.58,22.725,-4.777,24.087,7.472,12.688,-19.505,-0.706,15.896,-16.169,1.266,21.759,2.784,-21.514,15.199,-14.787,19.495,22.179,2.381,19.827,16.699,20.587,30.402,31.698,6.875,6.964,-23.85,14.943,18.08,-2.859,19.692,-28.759,-0.191,25.162,2.034,-22.392,-28.996,-15.398,12.083,-21.635,-12.601,14.45,-23.368,-23.324,-7.76,9.882,23.1,30.48,-31.498,19.968,-6.743,10.608,-3.659,-9.568,16.727,21.014,-12.602,-11.173,-2.878,5.877,20.774,-12.907,29.317,7.39,7.855,15.194,-32.444,-9.408,15.077,20.856,16.019,21.922,-2.647,10.74,-25.558,4.985,-31.861,27.708,1.752,-30.869,-8.773,-21.87,-19.418,-22.396,-16.503,27.42,8.681,-19.597,-3.427,-29.631,26.05,-27.093,29.441,-18.666,-29.591,23.665,-24.926,-8.88,-24.294,-13.81,12.844,15.069,11.162,-19.934,18.117,-2.157,-29.845,-1.025,11.098,11.644,-21.892,11.556,-8.462,-24.251,-32.388,9.725,23.892,19.34,-18.332,20.601,22.785,-15.224,24.531,-31.35,-4.566,27.148,6.897,31.026,-9.673,25.636,-20.818,-27.321,-20.709,-29.323,-10.742,-27.085,18.108,17.559,-17.432,-18.208,-31.637,-20.224,22.035,18.637,-0.56,-23.651,17.055,6.244,24.33,-30.063,2.254,-16.482,-13.914,-25.262,0.541,15.65,-1.035,13.204,19.336,2.176,27.675,-7.86,-7.381,9.396,-30.335,-13.287,-19.088,-8.977,-24.692,-7.077,9.998,19.534,29.471,-11.39,25.112,2.065,8.237,29.251,3.328,-10.292,30.776,20.984,0.219,7.411,8.522,6.373,21.816,15.232,-8.556,-22.726,6.013,-23.7,3.863,25.962,-29.511,-26.732,-15.998,2.398,-12.996,16.458,16.342,-16.373,17.752,-13.255,-0.02,1.677,-2.151,24.119,-7.288,-29.468,22.767,3.833,21.865,26.237,30.386,11.422,-0.135,-18.256,-9.526,10.771,6.486,4.513,-7.357,8.434,-24.413,-25.138,17.621,13.092,-30.142,10.803,28.523,20.475,-28.846,-5.109,-14.839,10.805,16.255,27.628,-24.7,20.525,12.468,5.312,12.572,25.925,28.204,1.827,-0.699,32.349,24.64,3.337,-23.345,8.802,-18.091,-24.907,18.074,-20.754,2.731,12.013,-30.874,-5.109,2.298,16.521,-18.194,11.92,19.26,31.771,-2.309,-30.935,-25.649,25.221,-9.135,25.248,-1.431,-3.412,-2.23,-1.528,4.909,27.369,10.721,10.712,-3.848,31.445,18.272,-4.652,-3.455,-18.07,15.006,0.588,-18.073,-2.866,9.223,17.361,-26.554,14.016,11.405,-3.757,5.977,9.191,12.871,-23.619,-23.713,1.09,-1.695,-28.374,18.412,0.404,19.617,13.838,-15.299,31.524,19.518,-11.483,-8.16,14.205,9.578,-8.053,3.092,25.168,14.627,-9.8,-1.22,26.817,-31.934,21.171,-29.515,31.197,-3.407,19.683,6.474,23.754,7.43,-25.971,-22.377,15.063,-10.253,-24.176,-13.401,3.47,-4.15,-0.429,11.147,8.966,-32.588,-3.392,-10.576,16.028,22.943,-27.164,-23.527,-0.456,8.831,-21.75,22.851,-23.586,27.871,-21.768,3.641,-29.366,14.953,-16.248,7.375,1.706,-8.386,-14.337,-16.369,-18.409,-24.875,26.682,22.083,-19.63,-16.139,-0.491,9.78,8.302,-3.799,-20.895,30.328,-20.782,29.441,3.414,31.726,-23.049,-7.38,17.156,26.772,20.969,11.76,15.976,-15.492,-22.148,-32.078,20.505,-28.484,-28.681,-32.072,17.867,22.288,22.808,-8.511,4.572,-21.906,29.258,22.454,-12.244,31.942,16.244,-28.27,8.11,-10.024,16.766,21.201,-0.671,-19.895,4.157,-21.231,27.163,26.018,18.327,-10.096,-31.548,-2.251,-10.48,5.238,-28.663,26.236,-8.752,27.529,-27.811,-3.607,8.11,1.412,14.203,-32.056,6.291,25.644,18.297,25.699,-24.974,15.728,-16.741,-14.102,-17.45,-1.083,22.872,26.278,-20.685,-9.836,17.3,19.354,28.997,-21.662,27.63,23.782,18.469,23.078,27.883,15.175,-32.319,4.481,25.672,-25.416,25.052,-29.165,-14.014,3.601,-16.707,-28.132,-14.795,21.258,3.717,32.511,12.435,-30.751,-15.536,20.179,-13.092,-14.794,-6.674,-0.051,1.313,-1.26,-3.441,0.46,16.212,-16.787,18.208,-25.821,-1.485,26.214,32.141,15.943,-9.198,-24.677,-12.006,-21.857,2.816,29.605,-11.237,4.152,8.617,-13.808,15.544,9.765,15.188,3.745,-16.963,-22.319,16.497,-6.784,19.377,29.406,15.507,0.617,19.409,-25.382,-13.007,-1.459,6.443,-29.869,-28.841,4.536,23.623,-29.478,-8.207,-21.816,-20.486,-17.021,13.804,-20.293,12.533,0.46,-2.633,-2.736,32.364,15.961,17.719,-25.613,-31.635,6.749,-7.613,-6.641,15.032,31.386,6.324,-27.241,-7.472,-1.423,5.089,-1.913,19.051,-2.314,20.459,-28.293,-11.127,-21.093,17.027,-16.495,15.776,22.646,16.052,-8.719,3.365,-4.911,-2.818,12.345,29.382,32.711,8.342,12.712,-4.742,-5.115,21.608,3.781,-24.209,18.586,23.21,5.95,-23.243,7.646,-9.83,11.644,-23.886,-19.618,0.565,24.056,-19.385,-16.087,19.603,13.241,7.126,27.893,24.154,-17.435,-21.839,-15.714,-4.53,17.75,-3.736,-10.615,-30.593,4.072,-2.357,-9.655,16.42,-30.317,25.261,2.443,-23.982,1.315,-17.431,31.675,12.122,21.382,-9.177,-17.919,-21.869,-7.108,-12.784,-30.128,-27.55,32.178,-15.65,-7.489,21.999,13.6,-26.242,7.068,-16.407,12.573,-28.822,-23.637,-22.071,-14.676,-29.971,22.645,11.754,-13.97,8.647,6.885,-12.732,-5.148,19.817,27.374,-22.268,-30.552,19.437,-30.439,1.531,-30.742,-10.56,22.442,25.39,28.26,26.225,-0.694,-9.195,1.787,12.641,-2.362,-0.382,21.793,-18.034,-29.746,13.429,-29.454,-24.901,7.34,-23.618,-28.01,24.673,-1.564,31.108,-25.431,30.601,7.855,19.832,-20.344,-16.693,1.311,14.185,11.267,-10.827,15.607,-16.659,-16.142,-7.995,-3.538,-4.771,-7.998,-6.65,6.611,-27.136,10.276,-27.205,8.225,-14.095,-6.664,11.492,-26.681,-0.631,16.503,2.368,30.241,9.587,-14.824,-5.068,0.953,1.401,12.984,-6.807,11.062,-19.57,19.461,-4.727,6.941,-14.059,-7.017,9.452,-18.187,-17.856,-0.39,-14.863,12.402,4.307,22.543,-11.628,-32.105,20.753,-5.452,-8.501,22.728,-12.754,12.341,-15.303,24.364,14.107,6.563,-3.007,20.106,-7.922,-14.764,3.966,18.772,-10.555,10.857,29.206,-5.82,-0.556,-5.033,1.908,6.875,-17.258,-32.294,25.502,22.554,17.505,21.553,21.434,-4.895,-12.728,1.847,22.168,24.742,-12.012,28.235,-21.233,27.253,-26.665,-7.918,14.976,-1.053,-11.909,-3.834,19.913,-17.188,-14.479,-0.119,6.011,-7.738,19.898,-22.536,20.011,9.241,18.876,15.772,-12.534,0.829,17.791,21.987,11.34,-7.741,-24.75,-28.27,-8.156,-22.438,-19.229,32.15,14.528,24.455,-17.185,3.964,12.508,-13.698,0.191,31.318,13.355,3.724,-20.75,14.189,19.027,-26.966,25.981,-11.696,1.464,13.918,21.35,-21.818,25.939,-23.482,-22.406,-14.819,1.692,-13.796,16.733,17.782,-14.753,17.747,-17.116,-9.985,-16.283,-29.347,-12.696,12.368,0.45,-30.262,-32.419,-18.412,-27.37,27.866,16.611,-9.717,15.344,21.956,18.592,-14.435,25.918,20.227,26.275,-18.803,-26.123,19.774,29.251,9.977,17.072,-12.11,12.249,-25.129,11.684,27.06,27.655,3.969,7.524,-20.789,15.069,5.836,26.028,29.149,-15.082,9.657,6.769,-8.567,31.382,10.148,7.069,-13.97,-6.203,-22.227,-21.053,11.071,6.267,1.745,14.3,-17.504,16.526,26.813,-25.045,-12.038,-12.562,6.826,-3.359,8.555,3.086,-29.743,-16.61,11.55,-21.354,-0.765,-2.911,14.847,14.082,-9.428,24.461,24.92,32.332,12.869,-30.143,-8.695,-7.09,19.365,-26.935,-30.14,11.662,-21.639,-23.158,8.484,22.826,19.579,24.003,4.261,-26.497,31.159,-28.967,3.66,-21.905,-9.493,-22.807,6.319,0.566,23.972,0.86,-0.045,16.887,12.688,5.198,-28.043,7.711,-16.337,15.438,-12.07,24.704,14.147,14.504,25.36,18.282,22.969,26.83,-0.355,-24.771,13.335,-22.23,-8.122,20.143,21.899,27.928,-32.298,-0.771,-31.801,-8.124,-30.3,-22.465,32.075,-13.748,-29.098,32.037,-32.04,21.178,14.06,-7.78,-28.458,17.219,8.67,20.735,13.183,29.517,14.945,9.383,26.555,-0.554,32.353,30.853,19.006,9.533,8.19,16.767,-30.455,-21.16,25.971,31.205,31.911,-14.596,16.807,-18.826,24.112,11.28,26.263,-18.864,-14.747,27.037,-27.978,-18.82,1.608,17.327,-31.983,-17.983,-6.697,-15.059,-32.065,31.546,23.024,29.485,-22.957,-8.182,11.251,23.714,-20.639,17.873,16.674,11.484,-21.872,0.562,2.724,-23.43,15.589,-17.504,-17.135,24.551,0.339,30.809,-3.002,15.224,32.302,-11.676,29.917,-17.165,10.182,15.008,-10.768,-29.091,14.485,-25.268,31.591,29.728,8.605,30.949,28.067,12.038,-32.449,1.694,-1.893,16.34,-6.057,18.964,-26.08,-6.954,-19.976,7.542,20.026,-23.996,-18.191,-0.533,-6.569,2.366,28.779,-8.366,-17.023,31.524,-2.153,16.3,1.734,-24.036,9.954,-11.825,-10.541,-23.618,-5.928,-11.726,-1.476,-28.093,18.575,-21.095,-12.835,-31.933,21.813,-13.544,-1.921,-15.084,-14.755,18.647,26.129,-12.237,-26.1,20.986,10.106,32.301,1.782,26.765,27.235,-21.583,20.141,17.646,-9.269,32.118,-10.042,17.044,-7.739,13.059,2.702,11.766,12.573,10.832,28.148,24.494,3.783,-8.133,21.257,-9.858,14.161,30.818,-31.473,29.353,-14.974,32.537,13.705,21.947,-6.168,-0.326,30.823,-23.998,24.862,18.259,-14.124,-20.271,-11.874,-29.314,12.742,-17.938,-5.197,4.325,25.083,-32.388,-26.685,7.461,21.15,-31.859,11.239,-9.5,13.439,-30.205,-6.212,-14.556,12.635,15.399,14.764,2.538,24.503,13.006,-9.975,18.3,-28.261,-14.353,-30.564,2.772,-29.406,14.135,-20.995,-8.937,26.979,-5.039,-14.508,30.65,-3.699,22.048,26.762,-31.09,-32.626,0.529,-18.178,7.147,-18.904,-3.173,25.278,-16.656,-24.15,-16.429,-3.706,10.27,26.028,-18.971,-7.444,-18.619,-15.047,25.3,-18.669,14.895,1.619,30.059,13.443,-6.011,4.4,1.304,-21.387,16.297,24.077,-22.547,21.751,29.277,26.145,-21.755,27.339,-20.109,-23.714,31.396,29.733,11.604,21.525,32.634,-11.319,28.196,30.147,32.739,14.093,-5.901,10.281,-29.431,0.882,-18.554,24.325,5.067,-28.817,-18.98,21.881,-17.324,-10.584,-1.828,22.032,-31.726,-25.364,3.246,3.111,-7.319,21.912,15.56,-16.342,-22.531,-6.191,3.514,-29.375,-4.586,28.884,23.933,9.861,-16.546,-6.829,-27.497,9.149,-13.298,-25.085,-9.073,23.205,-17.343,23.406,-4.692,23.18,14.313,-14.724,4.135,20.144,-0.051,-8.2,9.975,-15.963,13.526,-0.386,28.824,-0.652,0.715,2.667,-11.585,17.35,-22.029,26.102,24.363,-18.395,-21.876,-16.561,-15.392,-19.872,-24.823,-21.984,-2.604,-24.745,29.968,15.031,11.698,1.105,-14.198,-20.823,-1.991,-8.001,19.609,-15.374,-2.337,-12.741,4.321,18.737,32.572,-1.879,-14.634,-21.774,-12.132,-28.801,-1.009,-12.639,-9.317,-10.058,0.29,-14.508,23.353,-29.968,-3.581,0.977,31.389,2.231,-22.178,19.041,-23.642,21.004,-11.297,-22.223,0.083,23.146,-0.962,14.011,7.139,-10.698,5.368,-22.634,-19.804,18.424,-4.449,-17.862,-13.152,-12.95,15.192,-6.733,2.301,-10.658,-21.671,26.957,1.144,27.989,10.173,23,15.275,15.912,22.435,18.057,-17.007,32.399,-3.154,-4.779,2.853,-4.19,21.3,21.201,28.992,-14.027,-1.787,-30.062,-11.456,17.385,31.795,18.104,-27.99,27.662,32.472,-14.259,28.495,15.973,20.265,9.371,-26.716,-18.377,-1.294,9.829,13.688,16.561,28.023,-7.622,30.982,0.311,-15.817,31.187,31.804,17.547,18.407,-6.799,6.155,29.709,-3.222,31.973,1.776,1.448,23.599,12.285,30.529,-8.972,13.758,-30.851,25.592,4.869,-11.738,-27.411,-19.236,-21.331,-23,6.948,-27.36,-1.657,29.879,1.883,-11.391,-11.646,28.828,15.138,8.476,4.435,-31.682,-10.238,5.21,19.737,5.727,-8.244,29.468,-25.063,11.592,-11.601,14.525,-22.626,7.144,-0.301,19.542,4.648,-24.549,-9.897,-16.856,-26.964,16.48,-19.016,-3.56,-31.424,-24.608,-32.326,-24.552,-3.535,13.366,5.133,19.671,-1.209,-23.958,24.492,25.213,-14.403,-24.901,15.64,-29.952,-20.832,30.832,-25.595,15.857,-28.77,27.699,-7.554,-15.34,-8.369,4.813,19.472,-31.509,31.438,14.174,-28.245,6.506,27.482,-2.131,-18.655,14.167,-19.085,-22.23,-10.134,16.867,-0.062,-4.678,-25.459,5.506,-6.754,-20.927,-1.583,11.752,16.378,28.756,6.614,19.567,-17.761,13.686,-18.075,-13.14,26.208,-17.561,-31.768,-8.48,7.583,20.175,-9.021,1.255,-21.091,-11.422,18.407,21.406,8.661,18.741,31.252,1.285,13.097,1.599,-26.75,-30.601,-24.406,18.719,9.088,15.077,-26.705,32.253,21.219,-24.948,24.156,-7.581,-17.574,17.326,11.392,-25.994,26.432,-6.991,-18.493,21.687,-31.806,13.19,17.506,-30.237,-9.49,-20.322,11.605,-30.926,-6.543,-2.413,-3.309,-11.844,27.758,-7.826,23.665,-26.42,-24.955,11.45,-4.048,21.642,-10.322,-9.669,-7.155,-20.605,8.264,32.577,28.821,-9.608,-12.338,-15.316,32.045,15.536,25.835,-25.271,-32.11,-10.682,32.086,28.901,28.047,-5.018,-5.872,-4.702,-6.129,-0.889,25.839,23.266,-15.25,-6.19,31.296,31.162,-16.637,-25.215,-7.236,-21.636,-6.779,15.26,-13.981,-26.93,28.104,-12.236,9.941,-13.928,27.464,3.185,18.303,11.101,-17.623,30.115,18.222,-14.436,-15.037,1.13,-11.536,27.257,-18.505,30.875,15.42,-31.063,15.118,-30.349,-6.4,-7.588,27.86,29.266,6.885,9.957,32.478,-22.907,-15.311,23.663,-16.178,1.449,-20.321,-10.166,-24.747,25.34,20.839,26.664,-10.681,6.257,-32.133,13.653,-15.984,-1.332,28.804,-21.24,2.683,19.558,-19.57,-5.974,28.995,-8.632,-27.14,8.42,32.739,9.555,-9.243,-2.838,30.851,18.456,-4.005,-18.152,-16.705,1.154,-32.566,-8.281,-12.823,-14.831,3.876,-13.637,-17.813,18.664,-24.28,13.825,6.162,-26.856,4.577,10.249,26.427,13.415,-31.111,-23.419,15.389,16.507,32.746,-29.863,11.287,-20.485,16.747,-0.481,27.5,27.996,-9.9,2.368,-11.316,4.576,28.204,4.316,4.421,17.921,-3.493,14.92,-2.76,6.306,29.938,21.809,-5.711,-12.466,-17.181,2.336,18.444,-15.212,-12.474,30.573,10.939,-9.004,-27.839,-7.467,-30.416,-24.547,13.326,-13.637,31.046,-21.885,2.513,20.398,-30.953,6.543,-24.992,-12.766,4.539,-12.388,-29.017,19.807,4.502,-11.48,-12.49,-8.379,-19.171,0.394,-12.116,-27.613,23.166,18.621,30.325,14.43,11.619,31.216,0.062,16.795,-16.928,-13.097,-5.878,-16.572,10.231,25.75,5.648,9.086,-5.678,10.453,10.554,-23.957,-27.182,30.53,23.43,-28.442,30.07,-3.587,-7.569,13.487,-5.616,-15.043,17.039,-23.637,28.592,-15.114,-19.741,20.45,-18.82,27.764,-23.978,-32.598,13.745,-4.711,14.144,-0.604,7.169,14.202,29.048,8.929,26.621,1.022,-10.573,-24.553,-23.68,22.76,14.508,4.255,-20.629,30.297,17.505,-20.862,-31.054,-26.581,14.553,-4.192,-20.773,28.132,-2.747,-3.494,-22.085,23.469,0.032,24.031,-16.127,7.64,-11.906,-13.005,6.218,18.284,-12.981,11.641,-23.585,12.086,16.586,-8.941,-11.841,10.928,-27.947,20.578,-1.421,23.135,-4.5,-5.721,-26.426,-32.259,-21.253,-7.362,-9.377,21.551,26.937,-26.561,-20.342,19.501,0.694,14.029,26.206,15.851,-27.524,25.833,20.749,21.138,-10.273,-20.197,13.846,29.062,-1.155,-13.451,22.891,-14.67,29.213,22.122,-20.243,-11.156,23.544,7.601,-13.102,-6.014,-16.346,13.218,-17.713,-3.549,-20.225,-19.962,31.215,22.393,-9.133,-24.666,8.907,-15.905,8.699,12.899,-14.619,12.484,15.123,-19.698,-3.125,-9.945,16.86,-8.99,-29.063,10.158,18.089,-17.34,-0.297,3.123,-7.958,-1.541,-0.643,15.466,19.641,-32.72,12.515,-16.833,-24.675,1.714,32.029,20.632,-10.067,-7.014,22.663,-21.996,-4.49,-26.005,-21.004,14.104,-13.703,-28.715,-17.259,1.81,-2.589,4.876,20.339,21.974,-15.868,17.038,13.776,-20.766,-26.555,7.149,-0.958,-29.632,-10.096,5.595,-17.886,31.447,-12.062,-22.671,-17.737,-15.063,-28.919,-2.547,13.568,-7.812,-10.431,27.32,-25.346,-18.831,-22.523,-2.078,-10.253,-0.108,-15.578,-4.257,-7.464,27.53,-7.537,-14.835,-10.389,3.35,31.165,14.997,9.663,-15.499,5.414,-23.865,3.157,9.277,-25.873,-23.889,-3.571,-27.527,30.067,-30.997,-4.944,13.962,0.013,32.369,29.72,-19.969,-25.057,8.81,29.098,-29.488,-26.925,-11.275,17.962,19.106,4.357,11.229,17.498,-23.466,-28.508,2.562,29.107,-1.708,-5.711,21.939,-19.136,2.342,-21.986,32.304,-14.646,4.102,-0.232,-26.705,-29.582,-14.837,-12.393,7.967,-30.735,20.963,0.588,19.109,-27.732,0.537,9.014,3.164,-28.342,29.881,4.418,8.727,13.06,-10.191,-15.598,4.45,-27.817,-18.91,-5.834,-16.308,-1.763,-16.325,-21.643,-6.311,26.053,-0.461,15.698,-18.424,-9.121,14.113,-32.628,20.247,-25.801,15.286,22.423,10.718,-5.65,-14.344,-5.481,28.001,24.692,-31.975,-0.084,-15.43,5.218,-26.097,-0.211,5.159,-32.312,29.075,-10.075,-16.906,16.858,-28.464,17.321,-25.928,-14.16,-0.134,8.939,29.857,22.787,-5.442,-24.994,0.604,-27.235,9.25,-17.083,0.647,1.152,-15.283,-17.292,-29.092,-30.951,15.134,17.237,-30.467,-22.943,-17.201,-7.018,-21.758,29.767,17.462,-8.447,16.641,21.097,12.084,-30.721,-4.199,-27.066,25.207,-21.954,5.248,24.146,-25.787,15.868,-6.856,20.032,-7.317,-15.409,11.471,-7.701,12.075,24.213,-7.081,27.153,23.422,-8.177,-2.54,-10.67,1.325,-28.557,0.861,-11.242,18.228,-15.97,-26.891,19.416,-7.048,-27.919,-7.881,-4.706,21.009,17.591,30.965,15.374,21.439,6.595,23.101,28.585,8.743,32.48,-0.34,10.501,-18.023,21.057,-21.237,4.778,-27.391,-25.52,-4.483,-28.411,24.666,15.952,-30.711,-14.655,-13.266,21.018,-9.254,10.243,13.469,-9.183,28.831,-17.931,14.86,17.815,31.78,32.349,-31.078,-13.221,-28.678,31.535,-29.663,5.848,-7.402,29.924,-10.456,-13.644,-29.462,19.077,-6.85,4.367,3.575,4.558,-15.751,-27.171,21.583,-14.986,-21.197,28.273,-21.742,10.378,-22.952,-6.832,17.656,6.898,-9.054,31.354,-3.621,14.457,-11.009,-4.363,-16.642,-18.871,-13.503,-17.312,15.448,21.135,26.74,-31.954,13.174,17.596,-25.479,12.955,-24.35,-9.441,-27.194,13.272,8.586,-21.993,-1.441,29.906,-18.003,21.916,16.846,-23.895,-21.738,-9.777,-3.576,-6.75,-15.455,-21.908,-17.035,7.636,-6.811,-8.622,-32.123,-14.654,10.787,-29.115,-14.887,-17.543,9.911,31.904,-20.224,-19.235,-28.066,6.941,-10.999,29.887,-6.104,-19.881,-12.305,-32.372,-11.148,-31.867,27.335,-28.928,13.244,1.929,30.19,30.606,2.46,-20.749,6.076,-6.243,2.121,21.7,11.384,-10.899,-0.45,26.805,28.311,22.973,-8.371,-32.627,3.594,21.772,25.254,-8.004,24.743,5.2,-6.833,-6.231,-14.815,2.906,-27.284,-20.81,-27.918,-23.095,-13.827,-21.73,-4.663,-28.139,0.361,-29.395,23.77,2.813,29.943,12.7,-30.359,-28.306,-28.798,3.217,5.095,10.461,28.768,-9.156,0.798,31.203,-4.412,-6.564,0.181,1.46,-8.842,-30.62,6.056,-5.134,26.976,10.346,-20.792,24.41,-15.558,0.42,6.705,-18.936,-6.49,15.032,-26,-9.907,-8.359,24.574,-13.38,-13.151,20.743,29.07,3.262,28.282,22.094,-31.164,21.055,-9.653,18.115,-13.649,2.485,1.433,-21.749,25.048,1.08,8.001,-15.236,0.672,-21.102,-16.138,5.983,1.583,-14.885,-2.076,21.471,11.641,-13.097,-5.75,20.561,25.805,30.661,16.793,17.15,18.563,-11.492,23.701,2.988,-14.534,-23.091,22.429,-19.572,-25.173,-25.84,8.949,2.655,-26.736,-16.907,-26.392,-29.629,-29.77,22.894,-2.872,27.832,26.473,10.104,-20.329,-4.824,2.96,-29.958,12.425,-31.39,-32.327,-5.733,31.092,-2.602,-4.539,1.694,1.711,-11.072,28.443,11.013,26.653,-16.318,-16.575,5.908,-24.219,3.046,5.024,18.208,-0.378,8.235,10.933,2.204,-8.029,-3.204,-31.702,-31.913,-30.846,-27.481,-6.802,-15.1,12.444,-13.956,21.398,-15.476,-25.255,-9.522,-18.519,15.227,7.036,11.95,12.332,24.89,14.767,-4.765,1.743,8.732,31.704,-27.698,25.505,32.68,21.254,-25.818,-10.77,4.951,25.103,19.15,12.387,-11.938,-20.985,-28.785,-3.333,-27.476,-26.266,7.54,-18.849,-31.239,-18.07,-0.175,-10.057,-13.056,-12.939,-30.733,-25.216,2.292,29.966,30.295,-20.642,-7.037,-28.903,-9.266,3.824,-23.487,20.916,-29.039,17.467,29.611,7.423,16.142,10.023,29.852,19.898,20.17,-20.574,10.097,20.534,-31.509,-22.977,30.2,-19.014,-23.821,16.723,31.925,-4.538,-24.81,7.78,-23.718,-25.353,-14.119,8.089,-18.354,28.354,7.233,5.195,7.947,20.872,-7.308,-13.137,-19.548,-20.945,1.667,4.768,-11.059,-22.524,1.382,23.986,-17.246,13.077,-6.589,29.015,-12.27,-23.502,2.786,24.072,-18.379,18.647,21.725,-28.784,30.069,25.196,-18.804,16.303,9.636,9.671,7.86,-29.596,-9.664,8.21,-32.749,21.216,3.402,17.148,16.076,21.727,19.707,-18.279,10.866,-7.678,-9.869,12.962,-24.513,26.642,7.389,-32.106,-13.003,11.609,-0.168,-10.156,-12.742,-18.457,22.581,-16.783,3.798,0.934,-4.471,-9.391,-19.162,24.265,1.718,-6.066,-31.82,-24.863,31.211,1.071,30.605,-17.942,1.058,16.003,-5.608,-4.248,-17.137,10.497,-28.881,28.027,-14.067,-27.328,-11.856,-29.806,-29.698,20.692,6.456,26.284,2.583,-15.174,10.579,-26.677,-19.704,26.365,-13.424,30.895,-18.281,-13.231,-3.012,8.217,-26.253,-32.138,-20.543,23.699,-5.9,9.085,12.611,6.095,19.575,26.253,-22.643,21.354,-19.141,13.869,18.309,-17.856,6.75,-32.526,-17.47,4.009,-22.162,-10.263,-18.812,32.076,11.779,-24.374,-4.629,6.214,20.432,20.399,-21.716,-0.396,-27.307,30.204,4.502,8.348,8.345,-27.37,8.757,9.281,-20.29,-18.88,25.257,31.498,21.31,-2.341,21.009,-28.285,-5.322,8.418,-31.995,-12.31,-24.323,20.306,18.264,-9.833,14.812,-12.064,-0.615,20.243,-30.556,20.155,-22.852,28.941,-9.764,-10.486,22.298,20.07,27.991,7.722,20.044,31.762,-29.397,23.462,8.45,-7.2,22.41,-6.944,10.768,2.003,17.298,27.256,-30.274,-22.676,-9.41,-1.065,17.971,8.038,-23.154,20.909,-0.99,9.871,-11.259,1.521,-31.088,19.621,30.837,-22.275,21.33,-10.871,-26.469,-17.13,-16.66,-6.92,-12.941,-9.481,-16.427,-5.388,5.051,-22.527,5.014,30.154,-1.447,0.57,-15.873,-30.226,10.412,-32.409,31.019,-10.89,1.299,-15.256,17.685,-20.458,5.294,1.152,-22.816,-6.529,-7.717,1.209,19.159,31.693,21.212,-26.824,10.438,-28.714,-19.157,18.386,-4.16,7.06,20.779,16.721,-15.281,-11.319,-14.11,21.457,-22.189,10.196,-16,-21.908,30.073,18.599,31.247,-20.687,-30.494,-12.415,28.541,26.774,31.813,9.797,25.258,-17.962,-12.12,-32.395,-31.146,24.955,24.093,2.595,-1.767,-22.225,11.853,11.307,23.454,22.632,19.031,-26.252,29.871,-2.212,22.087,-10.368,12.632,29.624,-27.937,-20.118,6.314,-12.163,-2.963,28.605,-25.245,28.181,31.992,17.164,-29.492,-6.985,25.324,6.4,18.4,1.709,-28.711,-23.009,11.026,-26.92,0.751,-6.145,18.497,12.748,-3.755,25.909,-30.614,22.643,-20.695,2.339,10.508,16.26,10.378,-24.055,28.229,-3.463,-1.954,6.519,-3.065,16.03,5.833,0.519,8.036,22.583,-32.447,10.773,13.546,-23.091,-28.49,23.862,2.005,-14.64,11.57,25.327,2.389,5.299,-3.308,29.565,-5.966,-14.358,-13.787,-8.271,6.204,-28.354,9.218,-23.582,24.166,23.924,-1.473,-23.75,-15.955,-22.217,18.824,11.281,-1.351,19.821,-26.725,-27.592,17.765,-11.361,-8.183,28.87,-15.891,-29.198,-3.248,16.765,-31.51,-8.13,-28.692,17.494,2.058,-31.936,-29.862,-6.748,-8.853,-22.534,-6.279,21.942,18.626,2.673,21.217,-4.58,-1.987,31.273,-2.997,30.538,27.562,-15.662,14.263,3.999,14.246,-17.212,-2.381,6.801,31.584,-6.118,-19.366,12.68,8.863,-14.441,5.028,9.246,24.232,-18.649,-22.46,-23.9,13.789,24.647,-28.599,-28.669,-1.16,28.832,-24.421,4.702,-20.322,-28.313,9.269,28.954,0.322,-17.804,1.532,-0.85,16.849,6.962,19.532,12.118,-28.171,-30.086,-25.419,-24.306,-23.856,-14.601,14.9,9.418,23.941,26.254,14.181,1.737,9.225,-8.976,10.217,-25.587,-3.176,7.215,-9.16,29.527,-25.654,-12.27,25.57,16.705,22.39,26.582,-20.586,22.564,-29.66,-26.439,-8.89,27.403,-23.17,30.301,27.636,-3.361,-12.476,-12.608,21.026,-4.534,-23.81,29.228,11.006,32.019,-21.722,-21.896,-8.15,-28.795,4.97,-30.379,-8.909,30.937,-22.278,-29.946,-19.064,-26.412,-20.328,-6.749,-8.341,14.803,-5.274,21.875,-15.329,23.783,-17.51,-15.962,3.097,12.47,-10.355,-14.267,13.359,-1.63,-29.364,6.588,-6.071,12.884,25.967,11.611,26.896,25.77,-12.966,-27.097,9.826,-29.827,4.834,-21.619,-29.195,21.641,11.545,29.694,-11.654,-5.55,-32.22,15.55,-12.521,31.169,17.814,-28.081,-9.963,-10.978,11.055,20.395,16.388,16.663,-20.236,-23.913,-13.311,18.423,23.687,3.782,-14.835,2.812,23.751,-11.755,-32.26,19.796,-13.177,31.117,-19.029,-4.398,-27.753,28.981,-25.131,31.33,-11.883,-9.056,4.167,-23.514,-8.882,-15.262,32.127,-1.503,2.133,0.795,13.912,22,-9.058,18.703,-13.155,23.179,23.236,-13.32,31.282,-18.108,14.641,-15.623,11.758,-3.777,11.913,7.705,13.193,26.754,32.344,10.627,11.316,-22.058,11.088,6.206,-23.91,-10.175,0.082,-22.336,-25.388,7.972,8.746,10.982,27.857,-5.158,20.099,13.287,2.009,1.556,19.077,-8.968,29.606,-16.658,-3.676,1.866,-25.138,-17.91,-8.149,-3.597,1.755,20.228,-0.267,-0.808,-9.849,-26.566,30.51,3.666,-22.121,10.728,4.289,0.854,-27.168,-3.557,-12.666,-3.561,0.36,10.227,-13.124,6.622,-8.855,-0.608,15.399,-9.886,0.206,-27.064,-25.424,-4.03,-6.978,-20.642,-4.61,21.72,13.566,-11.024,-5.23,17.891,18.556,17.839,-2.114,-7.837,-11.984,18.92,3.197,16.452,0.474,-24.753,-3.64,-4.865,-12.897,26.849,-19.189,-21.121,-6.729,-9.57,6.563,-25.655,-12.887,2.494,-14.133,-20.307,-8.618,10.237,18.995,1.164,10.75,-4.67,-7.24,12.858,-15.458,8.906,-10.306,16.19,-11.015,-0.672,17.85,27.805,22.315,1.746,-28.685,4.542,-2.794,-24.31,26.346,-14.339,-5.468,-11.716,11.889,24.111,15.652,-4.281,-17.817,-5.284,-15.25,11.649,-20.48,-1.107,-2.042,27.105,-9.931,1.507,-4.629,27.561,5.97,-18.03,2.973,-25.53,14.197,-7.114,14.565,15.264,-6.725,-21.091,13.414,4.097,8.191,14.803,-17.369,-3.954,-11.69,29.164,-20.932,18.496,-9.465,-1.576,-9.171,-17.094,20.151,22.88,-2.571,-7.521,3.485,1.103,15.718,-29.602,14.695,-13.653,-3.326,7.42,-19.179,19.002,10.477,24.046,7.168,-9.384,-24.513,14.721,-20.68,5.501,5.249,-4.533,-23.558,7.151,32.682,18.696,14.316,-29.962,-3.832,-2.494,-6.064,-7.083,-4.659,-0.606,2.925,4.728,5.051,5.6,9.232,19.489,-25.447,-8.928,-11.49,2.796,-11.019,3.564,11.072,4.104,-8.651,-11.159,13.866,15.48,-14.527,5.236,-12.036,-20.927,15.115,-9.931,12.168,11.605,-22.956,-5.024,-13.281,5.476,27.72,-2.668,-14.215,-16.812,8.051,23.544,-26.71,0.985,-7.171,-5.863,-11.299,-0.079,0.922,11.736,6.439,8.188,-5.13,-6.844,-16.419,-5.673,6.239,-18.818,11.564,-26.312,-8.505,24.076,23.419,13.601,-14.97,-19.374,-4.179,3.853,-27.304,6.585,-5.942,2.949,-20.493,19.027,8.803,19.441,1.433,-11.39,-15.575,-22.422,17.975,-21.146,1.041,1.533,1.431,3.735,2.86,-9.116,26.844,-5.642,-22.496,12.174,-27.391,7.52,-22.305,24.889,7.056,-0.034,-24.471,-7.107,11.419,15.287,4.529,-11.835,-20.907,-9.526,-32.206,31.777,-28.571,-18.959,22.763,18.004,15.2,-14.447,0.822,-28.333,10.705,-20.555,-27.333,-14.918,29.556,-6.213,-10.064,22.643,-22.39,-31.694,1.958,32.346,-4.124,31.227,21.642,11.304,-15.636,31.269,14.21,-26.318,31.231,-3.701,22.777,10.032,15.923,-31.535,10.242,-32.529,5.739,30.92,-28.466,-20.221,26.35,-1.612,27.389,11.483,17.932,-12.43,9.045,29.568,3.153,28.467,-6.031,-29.306,-24.758,-5.095,5.044,-19.58,-32.572,-25.875,-11.259,-7.714,32.136,-17.693,-13.702,30.167,25.411,-4.023,17.847,-18.481,-28.4,20.924,-0.917,-15.626,12.147,24.62,-4.48,-13.871,24.254,-15.389,20.549,-1.325,0.302,-0.058,-8.777,-20.832,-25.606,-11.031,-31.939,32.542,-28.195,-19.384,21.574,16.456,13.946,-14.63,2.494,-24.118,17.977,-9.936,-13.329,2.252,-16.097,-2.1,25.313,9.383,18.083,-28.655,-3.688,-30.922,-4.075,12.812,16.369,-31.296,21.145,-5.498,-22.801,-24.184,22.097,22.26,-28.829,-24.232,-18.757,-4.271,-8.858,-6.347,-13.846,0.238,20.038,9.871,-2.102,-26.293,-23.081,-1.143,8.946,-27.716,-8.521,20.279,14.152,4.424,-10.835,17.314,22.074,24.646,20.377,-6.059,-5.324,29.07,15.626,-22.315,-12.889,-4.954,-31.113,22.555,-8.607,1.209,-31.659,-13.221,22.617,-14.15,-25.306,30.528,27.29,-21.223,32.152,-22.246,-1.762,-25.988,-10.024,18.007,-19.668,-11.777,27.941,27.106,30.454,1.197,2.576,4.029,1.148,3.787,27.56,22.525,-17.161,-7.319,-32.159,21.317,12.174,31.366,3.883,-13.541,24.804,19.076,14.924,-9.855,26.251,-22.715,9.377,15.73,-25.946,-25.18,15.877,-15.744,-1.817,4.441,8.113,-23.189,-1.212,7.771,6.295,30.778,-3.556,-26.033,32.07,27.882,5.561,28.058,24.744,5.153,17.32,-11.761,-2.22,-11.17,-19.67,25.499,-12.916,-9.356,4.509,-7.684,-11.184,-7.846,-16.39,6.234,-5.945,-27.28,8.988,-19.913,23.367,-16.739,-13.773,10.575,32.16,30.385,-8.603,-25.221,0.062,-2.277,-0.243,16.791,-18.075,1.517,-15.822,22.791,19.878,1.339,-15.88,-21.185,-8.463,25.22,15.007,7.664,31.095,-32.164,-18.055,15.948,-19.491,-14.036,23.091,25.919,-20.36,30.478,-18.483,32.282,12.577,-0.961,-21.519,28.817,-5.451,30.882,21.589,3.597,17.12,31.196,-13.669,18.99,7.322,-10.136,11.553,-18.996,21.351,8.792,-13.962,4.657,-20.095,-25.436,-18.95,24.928,11.499,3.417,-1.752,28.77,7.431,2.647,15.682,15.207,26.171,31.184,-3.749,18.521,-21.508,3.107,-12.542,-3.174,-29.209,-2.767,22.89,1.487,31.502,1.253,-18.34,-10.783,11.117,22.643,-1.512,-14.993,-9.749,2.474,2.752,-26.975,31.754,12.881,-27.726,-0.297,-12.244,16.292,-20.955,28.812,21.788,25.709,2.667,3.078,-19.695,-18.494,25.497,-17.897,2.939,20.721,5.663,18.588,22.384,5.487,-27.838,0.664,-6.463,-16.43,-3.761,-16.476,2.808,21.074,-32.116,32.346,-31.16,24.356,-17.216,-30.323,-8.032,-2.452,-18.603,29.199,-7.997,29.903,29.762,29.868,4.743,-30.243,24.245,26.399,6.604,9.289,12.579,32.493,-30.444,17.052,14.754,-10.995,-12.105,-3.733,-28.671,-2.702,7.647,6.604,-32.599,-13.75,4.46,30.184,-28.357,-29.466,-6.057,-4.501,-2.849,-14.702,-1.693,27.397,-23.059,-8.491,-22.092,7.882,23.048,-21.251,-21.346,-16.861,21.728,20.521,1.357,30.081,-15.069,5.429,4.273,-2.477,-16.178,20.256,-15.397,19.878,-22.223,-8.642,-21.971,28.98,-25.676,10.371,15.624,-0.381,-30.461,-2.794,-24.553,-6.474,23.051,-16.217,-16.016,7.392,-19.835,12.401,20.694,-25.099,9.658,-13.557,-11.148,-3.218,9.508,-29.289,6.145,-21.545,-22.718,-10.098,22.055,21.708,-14.887,0.246,-13.252,-5.003,-1.196,5.847,-26.111,-22.891,1.789,-6.072,22.167,5.437,3.114,1.511,20.252,26.068,32.44,8.253,-26.386,-28.711,-18.135,24.935,3.822,-18.236,23.892,-13.114,-17.599,29.33,31.713,-12.357,9.112,-19.63,25.624,-31.45,-19.037,-21.27,31.806,8.982,-30.231,-8.276,15.441,-8.539,17.076,-19.314,19.53,-27.591,24.094,-32.21,-28.204,27.963,-22.624,13.152,4.46,16.241,0.26,-5.303,7.855,32.218,-11.487,-23.783,-32.58,9.204,-21.041,23.988,1.598,-15.863,5.126,7.435,32.24,29.901,-17.446,24.37,9.926,13.85,7.802,-14.8,18.055,6.129,-18.077,-27.702,-2.824,3.58,-20.849,0.714,-22.424,18.08,-21.094,16.445,9.933,-10.323,-10.427,-25.953,12.443,15.015,28.938,28.654,24.585,-21.907,32.511,-1.566,20.597,-14.042,6.772,21.588,27.384,-14.717,-20.577,7.556,25.473,-22.905,10.045,15.358,-23.132,-6.048,7.069,21.872,9.52,-3.315,-32.377,21.353,30.889,-19.618,-21.028,-19.837,1.889,24.462,13.883,2.468,-15.616,2.996,-13.661,17.591,-22.536,0.249,-9.337,22.769,-23.245,-9.101,-24.43,10.281,-20.655,23.293,-12.799,-3.325,28.436,-8.976,-24.528,14.547,-25.14,-3.266,-0.325,8.184,28.22,-9.564,0.442,-32.672,-14.725,24.119,-1.497,10.563,-27.107,-13.771,27.364,16.657,-5.68,-12.628,12.168,11.062,-32.434,21.413,-32.075,-0.158,7.964,19.456,-7.867,-9.191,-10.231,-9.795,6.758,-7.394,12.119,-24.708,-2.114,11.799,3.693,-9.565,1.632,2.32,-1.122,17.45,23.609,26.135,-11.529,-8.202,28.633,-16.277,-24.754,17.02,3.333,-12.05,27.881,-25.979,0.507,12.632,-0.324,-5.083,-17.793,-9.099,1.74,-24.167,4.623,29.056,-6.352,-11.896,25.739,14.182,24.738,-1.065,24.316,-19.26,-0.805,-19.476,-4.474,-12.1,-17.844,-27.172,7.373,18.674,28.158,31.546,13.789,24.289,3.802,-16.348,-31.115,17.204,3.563,0.918,-30.781,19.224,-14.36,-5.1,29.922,6.841,23.195,-15.292,-14.515,-2.592,3.907,-2.365,-21.863,15.233,2.77,32.243,12,-23.333,17.457,-26.836,-14.853,-12.066,24.934,-12.572,-22.666,-15.716,11.1,0.794,10.275,10.718,3.367,4.797,-28.937,-30.326,-20.912,4.248,-3.498,22.53,-3.798,-28.5,-3.767,-25.059,23.735,11.502,-24.977,27.708,-29.574,16.02,12.788,-11.177,-9.702,-1.355,-32.392,-21.249,29.683,11.362,-18.487,4.412,4.346,-16.61,-17.601,-11.428,31.349,23.657,-29.517,-11.387,30.628,-22.545,27.578,-28.231,-31.576,-2.124,22.779,4.243,-22.91,7.07,31.245,1.46,18.681,-24.355,13.495,-26.128,-22.503,-3.536,1.46,-31.399,14.003,-28.215,30.776,-8.368,30.016,11.93,7.042,-24.773,28.651,3.75,28.307,20.29,8.775,6.923,18.398,-23.711,-9.613,-26.223,23.324,-21.368,-20.264,25.02,-21.862,-7.369,6.857,-2.545,30.589,6.887,28.846,15.924,11.46,-19.365,-10.29,10.744,-24.795,6.054,-31.539,22.513,-17.98,-11.866,-12.453,-25.848,32.437,12.045,5.912,12.363,-15.392,-4.867,30.007,-29.968,-2.582,13.383,-2.167,-26.077,-17.02,2.113,-18.462,0.194,-11.533,15.261,7.293,-31.919,5.227,-5.899,-16.373,-32.071,-17.747,9.787,11.511,11.397,-4.962,-1.127,12.199,3.656,4.273,4.815,-21.104,29.195,-26.602,-14.047,-10.906,-5.881,-11.537,16.845,12.362,-1.515,-26.052,-7.42,-6.265,4.143,22.978,-28.983,10.261,-4.129,-10.277,12.407,-4.837,-29.009,17.582,22.425,-1.075,20.854,-18.931,-31.524,20.385,9.972,17.667,13.784,-12.801,4.846,28.032,-26.036,18.446,-29.329,23.642,-4.426,16.967,18.172,-22.811,32.256,-20.592,13.059,25.793,-19.37,14.907,-3.021,17.925,-1.996,-12.621,25.372,7.132,-24.694,-27.599,-32.09,-32.422,-5.751,9.234,17.24,-21.516,-27.871,-10.03,-17.22,22.545,29.805,-1.713,25.91,-19.3,-26.764,15.345,2.38,-9.558,-26.56,-17.124,-2.722,-26.323,-0.739,11.555,18.577,-3.688,-23.223,14.4,32.646,-28.534,-10.595,-6.053,-15.212,7.415,-9.859,15.656,29.657,-12.562,-9.501,-3.69,31.66,20.627,-16.003,-12.416,-23.922,-22.565,-10.199,-2.491,-18.299,-7.65,-27.112,23.394,-27.08,11.892,11.609,-24.689,-28.422,23.061,-6.199,25.614,-24.383,-15.219,-21.798,-12.625,24.389,23.897,27.293,-10.008,32.447,4.408,-18.638,4.617,25.462,26.121,8.149,-16.339,-31.051,-19.939,29.962,-4.114,-23.72,29.04,-16.023,-12.839,-16.007,29.84,25.861,14.55,-30.589,-31.572,-5.023,-10.842,13.23,-19.179,13.459,-16.934,-6.484,-19.819,6.28,-11.377,-13.63,-13.462,9.701,23.384,-24.068,14.935,29.024,-1.272,20.194,31.331,-29.324,-12.33,-21.432,-1.225,-25.91,-20.641,17.308,-10.797,29.337,32.208,-7.008,24.235,12.066,16.995,-23.06,-19.694,-24.204,-14.556,-2.424,-13.221,-7.574,13.104,28.013,11.308,6.539,18.202,31.254,24.313,-22.006,10.623,22.636,24.048,11.574,-22.637,-20.072,-31.703,-20.381,21.607,20.296,8.068,-1.181,-4.129,-2.605,-0.071,0.466,-2.492,-8.609,-15.842,-20.86,-19.593,-7.803,18.39,-3.466,-23.687,-11.573,-16.774,13.081,-26.554,-32.757,-16.836,22.082,24.695,-19.842,-28.947,-20.369,8.299,3.063,24.817,-17.344,-6.861,-10.033,27.605,12.025,-7.318,15.376,-15.535,17.105,-16.012,-10.41,-29.225,-7.503,-26.885,-27.082,-20.492,13.504,-23.564,-5.428,17.889,-14.348,-23.865,-9.557,-7.938,-0.837,-11.81,-13.597,-24.125,-13.454,0.788,-18.5,21.538,-2.935,31.373,16.979,17.82,-26.657,-27.644,28.92,-14.093,27.752,11.356,-9.752,-26.241,14.557,-20.826,-1.886,-21.712,-1.218,10.992,-20.632,14.187,13.546,-11.1,6.194,14.641,-17.816,24.647,-20.162,-23.965,-2.76,25.79,-19.089,30.727,-26.532,-7.972,28.82,-14.696,25.727,17.775,-27.062,-27.532,-14.28,-1.09,9.332,20.838,-25.133,-7.726,-3.619,25.885,-28.358,3.271,0.626,-11.925,-8.789,32.088,-4.623,-15.288,-4.786,-29.611,-28.446,-24.711,-12.605,27.146,-14.507,-24.16,2.913,17.477,19.128,32.256,23.803,5.626,10.44,9.858,17.232,-1.349,-29.602,-28.499,-20.453,12.222,-27.862,-11.51,14.546,-7.679,1.783,-21.041,-0.177,-2.472,-19.803,-7.867,21.73,32.266,-17.616,-30.277,10.998,14.084,-17.055,-30.621,-25.759,-26.283,2.558,-13.641,9.603,21.808,-17.566,-3.557,23.492,25.541,-26.366,-17.877,17.218,-21.111,17.677,-15.766,6.37,-4.95,-29.805,2.317,-23.616,-27.709,19.46,-14.438,13.973,27.639,-11.652,16.976,26.828,-21.973,-5.817,-6.818,5.424,-20.43,32.344,11.837,-6.783,18.264,-26.412,21.164,32.506,24.674,17.969,31.581,15.296,26.815,-30.77,18.577,-9.176,21.554,-17.034,-27.197,-15.632,27.13,-14.982,32.592,-6.242,15.656,-18.174,-1.171,-0.44,-23.213,20.616,-11.101,-17.375,6.361,16.906,21.914,-12.369,-0.582,-11.843,20.051,17.815,-19.054,13.795,-10.346,22.224,-7.127,21.622,-5.768,-32.306,7.354,-26.876,-19.403,-13.659,9.344,29.933,13.75,-7.201,26.747,-19.479,-20.655,-10.039,-25.974,30.033,-23.955,-10.836,-5.025,7.803,17.218,3.376,12.403,-16.724,12.417,-7.69,-0.126,-8.85,3.694,-23.113,11.84,6.855,-21.735,-1.656,22.01,21.117,-18.008,-31.873,3.966,24.197,-2.161,-16.237,9.15,14.946,-22.681,27.016,17,21.512,12.61,-15.453,10.365,-9.133,25.027,27.22,-29.939,-6.868,28.692,-14.061,-21.431,2.746,-1.971,19.655,-27.583,-29.845,10.963,-29.183,19.142,-23.022,-9.663,8.449,25.659,-5.896,-12.662,-6.054,29.182,-13.015,-13.523,-27.497,13.013,25.829,2.836,-24.852,-11.342,22.316,26.085,11.624,19.853,-32.283,-8.339,-18.731,-10.247,9.224,3.858,-2.461,-25.801,-31.77,32.732,22.091,-15.12,-8.437,-20.612,29.96,16.809,-0.455,-12.574,30.031,-10.063,-5.817,13.017,11.668,25.742,-12.187,-8.497,-4.996,29.971,26.462,10.44,-14.509,10.546,29.03,4.494,-15.745,-16.751,-1.666,18.209,29.945,22.907,-9.222,-2.265,-0.612,-27.148,-23.114,-31.696,-5.701,5.981,-16.988,-10.123,-10.299,-30.58,-3.245,-30.734,-15.36,23.185,11.54,-3.584,10.006,6.174,-24.366,-4.161,-24.744,20.664,-13.048,28.849,24.264,2.62,-2.599,-26.935,-0.624,-12.693,-15.037,-32.169,12.94,-30.579,-0.802,-7.418,-8.492,-26.546,21.126,-9.983,-18.305,2.733,12.327,20.26,-5.741,20.354,29.278,20.815,29.467,-30.338,-22.03,11.278,12.191,-6.564,0.979,23.302,23.129,24.057,10.209,16.197,29.598,17.734,10.854,-0.477,23.218,6.616,30.514,-25.597,-27.475,-3.888,7.797,-26.619,-0.401,-20.509,-14.37,-31.869,24.718,-22.078,10.795,-11.535,-24.132,-7.199,-32.011,-2.823,-22.94,-9.57,-1.228,-22.083,-17.893,28.576,-18.354,-13.306,-28.579,-31.161,-8.029,-23.864,28.865,-7.047,7.226,1.156,13.173,-3.276,4.994,-0.932,-31.072,-12.488,23.318,-0.369,30.397,-26.701,-16.246,5.266,19.873,32.066,-8.403,29.721,13.189,-31.552,-3.452,18.902,15.308,-1.229,-2.583,-23.395,9.857,12.485,-29.433,-25.227,18.997,-15.055,-14.065,30.849,10.03,-25.156,-18.364,13.351,20.013,11.242,25.116,-24.209,-2.5,-21.541,-28.566,-31.035,1.928,-17.321,-19.564,-2.462,3.596,24.15,-23.583,4.885,9.548,-12.596,-15.443,-2.413,-0.168,24.519,-3.134,1.918,-9.544,-10.783,-8.085,-22.042,-9.742,29.33,9.122,15.839,7.405,19.323,-12.616,9.158,-19.609,-18.173,-27.077,-6.329,-15.35,-18.612,-5.748,19.807,-16.9,-12.947,5.755,21.121,22.593,6.219,-26.641,-5.23,30.38,-6.645,-10.97,0.734,21.363,-15.67,5.159,4.208,19.169,6.974,25.663,-24.817,27.214,-6.351,7.154,4.108,-30.704,-18.983,17.456,11.764,19.907,16.792,9.109,18.677,5.443,-26.627,14.136,-17.977,-27.513,-15.349,-28.799,3.161,-1.001,15.923,-28.293,-3.99,-30.631,2.611,-30.278,-17.419,-14.092,-14.808,15.186,-12.717,-32.176,21.78,3.696,22.112,27.007,32.515,16.445,9.929,-0.533,18.749,-12.978,-18.772,10.222,-17.717,-27.896,-8.798,18.245,19.889,29.728,-22.713,19.151,-0.999,32.095,16.24,26.214,12.703,7.525,11.189,9.382,-16.045,-14.794,22.23,16.371,-6.815,25.685,-0.574,-6.141,-27.975,-20.464,28.254,-20.38,-22.047,16.708,16.697,10.127,12.978,31.079,-1.123,26.705,27.447,31.631,-9.133,26.008,-10.672,25.069,-1.253,-5.224,-7.693,-10.571,-5.585,19.46,10.888,25.281,31.617,28.3,29.245,-11.496,-27.512,25.047,-26.914,31.431,-27.48,-11.293,-18.238,-6.483,-4.784,-4.523,20.248,-31.922,24.56,20.297,-26.335,-6.963,13.633,29.62,-0.226,6.322,-20.005,-11.277,23.537,-26.119,30.47,-30.424,0.241,-21.893,8.538,-29.388,-14.373,7.936,-15.132,2.741,2.95,-0.77,-26.774,26.938,-26.881,-19.919,30.195,17.949,12.743,26.102,-25.883,6.441,30.067,-17.53,26.469,10.182,-13.946,31.872,25.891,-30.274,-7.381,-0.729,-0.087,-10.677,22.413,-23.803,-5.965,-5.685,-1.452,9.361,20.229,21.921,6.458,-30.791,-24.804,-19.824,26.407,-6.913,32.467,7.582,-4.216,-31.495,-16.6,-1.94,-4.923,-26.631,6.97,-4.377,-29.186,23.639,-5.897,24.992,-13.711,-30.663,25.886,-18.997,-22.403,25.007,-0.375,0.054,18.705,-2.036,-0.937,-0.88,4.798,-29.19,-32.176,-20.863,14.366,28.288,23.712,27.527,8.557,-19.985,-24.473,-32.732,-31.131,12.016,-0.344,-11.705,-31.301,-31.843,27.023,-13.23,17.264,23.02,-5.255,-31.632,-3.581,-1.87,-25.315,-31.639,-31.225,7.897,0.755,19.244,1.91,32.005,-14.739,-10.399,9.828,3.514,-0.924,-10.537,18.191,13.933,-5.093,20.814,29.201,-24.034,-32.421,-32.171,9.237,19.903,22.421,16.605,-7.653,3.502,-5.97,-3.153,16.964,-20.502,-16.791,-3.359,-3.381,-30.975,-26.104,30.947,4.528,-27.195,-26.008,20.161,-23.536,-8.307,-2.694,29.065,-30.023,-18.974,0.71,1.886,-20.119,8.862,-9.326,25.162,27.365,-29.652,-6.056,30.493,-10.859,-16.564,9.335,6.166,28.94,-17.75,-20.221,19.522,-22.591,22.889,-22.93,-13.91,-0.661,11.35,-25.531,27.994,-18.067,-17.343,-14.432,-6.87,30.579,-1.783,18.357,-29.109,-29.948,26.374,31.365,-29.118,13.176,-10.207,-5.448,-30.45,-8.025,-6.523,-20.502,-8.487,15.588,13.521,8.989,-13.168,-17.283,-14.601,28.874,31.14,1.22,-7.42,5.612,14.888,-12.445,25.949,16.4,24.733,-4.311,23.714,-4.064,-16.558,3.279,-22.542,-5.663,10.148,-9.087,-19.314,-11.312,5.798,15.84,2.832,20.709,16.484,27.074,-4.428,28.383,28.856,17.064,1.663,-14.717,-31.964,15.186,13.948,-16.384,5.885,-19.083,2.757,-20.074,11.398,7.811,2.536,17.792,1.017,5.417,-4.879,29.666,6.873,28.732,15.393,11.346,-17.117,-2.935,26.306,1.951,-19.112,6.188,-25.154,-4.262,-1.779,-30.668,-6.353,-9.369,11.933,-32.637,-21.052,-12.922,-13.613,-0.412,-6.288,-18.577,-3.714,10.413,-28.411,24.078,-13.414,14.123,2.871,5.895,12.115,-18.09,1.809,6.841,2.126,26.804,-1.738,-11.585,0.665,4.631,25.225,-21.265,8.65,14.056,-8.769,-14.203,-5.894,-10.486,5.471,-32.408,26.976,21.745,-3.069,25.822,-14.981,8.087,0.692,-27.149,-15.168,-20.836,-16.329,-2.582,6.039,-8.076,5.988,-7.813,-14.859,-7.638,7.165,17.472,11.404,-19.506,-13.341,-16.353,12.907,19.508,-21.755,16.224,-17.368,14.596,-29.959,-6.993,11.821,-5.41,1.581,-3.879,-32.354,-12.795,21.081,-9.361,8.573,-2.337,0.448,-20.785,-3.367,21.408,-17.556,1.208,8.042,-15.065,9.262,-6.339,-15.201,21.142,-1.48,26.526,-29.509,-2.186,-2.176,8.119,0.682,-12.534,-1.314,2.515,9.014,-18.232,1.219,-7.032,18.764,-1.64,-4.428,2.004,-23.825,0.685,6.266,-5.578,1.935,10.859,-19.557,-0.853,5.127,6.604,-20.484,21.24,7.207,-8.381,-24.416,0.782,-10.539,17.984,26.715,-32.694,5.09,-15.502,17.411,-3.178,-7.015,18.922,-8.211,-4.225,-15.538,-11.38,5.666,17.495,2.345,7.639,-24.927,4.002,-10.677,9.445,20.847,-5.038,-17.039,0.639,-21.933,14.586,10.722,-13.436,18.075,-2.674,10.631,26.293,27.05,6.705,32.552,-1.709,-3.069,4.918,12.276,17.899,25.861,-22.942,-8.523,-8.444,15.272,18.572,-7.842,12.513,-13.051,21.369,-29.669,-11.134,21.324,-14.703,-0.727,-4.571,25.431,-7.428,10.1,10.165,-18.669,8.736,11.712,-24.236,-11.405,-25.245,-8.886,17.254,-0.921,8.788,-29.59,14.066,17.243,20.386,5.335,-4.304,31.807,23.053,29.797,-21.434,8.901,9.566,30.915,-4.032,-21.214,-17.05,-22.646,-14.009,-10.003,19.376,-8.814,-18.536,-0.802,19.129,4.188,-14.606,22.356,-19.68,-15.143,2.887,-4.006,-3.216,1.53,-9.874,4.817,-20.575,5.48,-28.238,18.654,-11.375,3.737,-28.27,-22.814,-21.491,12.139,14.284,16.384,25.676,-28.659,22.261,-27.564,-1.476,-28.845,31.08,29.668,-31.318,-9.12,18.518,11.929,23.935,11.982,27.344,26.474,-5.807,-0.898,6.953,5.703,-2.955,-9.977,-3.61,27.397,26.228,-19.865,-32.109,-32.3,-21.282,10.565,10.499,-28.088,-20.583,15.368,15.191,-29.982,-32.528,-4.853,-6.099,24.776,-0.729,-28.92,-11.079,24.335,16.237,31.41,-9.753,21.009,0.921,-28.495,-17.77,11.764,8.022,-19.747,-32.527,16.765,-27.26,5.95,20.044,3.986,-8.39,-32.186,28.768,-22.252,-26.459,-8.862,-13.577,-19.48,23.252,-28.005,12.837,-2.432,-27.912,3.905,26.994,-11.621,-15.519,-29.52,-26.817,-16.014,-21.002,-2.206,-27.423,-5.809,17.029,3.365,-6.784,-7.513,-9.989,-30.973,-20.072,31.001,-23.318,19.655,-30.781,5.593,-3.742,10.161,5.017,24.46,14.855,17.511,-18.248,19.947,-25.633,-19.328,29.926,-21.749,-26.865,14.782,31.085,-5.837,-29.486,-4.147,18.299,18.603,-2.047,-31.228,13.556,-29.633,-16.124,-6.731,-19.309,19.101,15.03,9.262,-29.795,-30.119,-13.549,21.994,24.013,-10.092,9.32,3.398,23.484,-21.885,-12.23,-8.539,-17.133,-15.718,28.394,15.227,-2.984,26.097,13.818,17.24,23.152,-12.775,-8.959,31.398,-1.685,14.419,30.638,-10.579,-27.142,-14.53,-6.825,15.337,28.337,-7.291,1.694,-0.67,-0.747,-18.553,-20,-16.037,28.512,-32.499,-10.068,19.094,-5.672,6.724,7.962,22.738,-24.16,21.839,4.043,-27.315,5.206,-19.221,-31.758,-14.355,23.035,-7.19,-15.478,27.042,-17.346,-11.844,26.528,8.683,25.126,-24.999,13.159,-4.135,-10.056,21.812,27.556,-22.478,-2.366,3.641,21.814,-3.638,-25.236,-18.495,25.506,-25.322,-16.837,-11.856,30.101,-4.987,-20.718,-31.871,27.315,-13.953,-14.143,32.252,-2.601,-23.453,25.821,-25.683,-31.864,18.744,3.542,21.114,-2.566,-13.427,30.08,23.874,10.191,30.251,-13.863,-5.34,-6.8,-24.774,29.288,10.545,16.974,-15.18,-18.094,-3.271,-18.589,11.497,11.648,-20.79,14.637,-12.854,7.157,19.613,30.821,10.729,-15.739,-0.248,-23.266,-15.063,23.275,-9.487,19.672,5.042,7.994,29.139,-25.97,-15.867,27.106,-8.569,11.965,-9.362,-2.051,-23.126,16.902,-0.74,-10.345,1.134,19.02,18.05,-26.554,-1.569,-10.312,20.877,-24.441,-3.461,-1.797,-2.896,-8.46,-27.822,-5.585,3.561,-32.367,4.57,20.544,-32.281,28.57,3.51,4.834,13.994,18.33,10.961,-9.912,23.497,3.08,18.895,-21.395,-17.514,9.367,-17.263,11.599,12.517,21.512,-4.568,-6.65,-17.497,23.47,13.626,-11.984,-21.928,8.416,29.753,31.791,26.119,-31.617,-5.787,-26.858,-1.577,-7.726,5.932,13.073,20.78,-13.872,-17.24,-3.292,-25.939,-16.104,11.41,3.702,31.423,15.58,17.202,23.568,-11.015,-7.054,30.195,-10.825,-8.346,-11.528,-11.745,26.622,14.206,15.523,27.581,15.537,2.168,-30.515,15.513,13.194,12.781,11.138,-19.363,19.443,5.725,-3.247,-3.943,-18.954,-12.862,6.135,10.267,-31.847,-14.38,18.749,24.199,-32.217,25.344,-18.009,-0.72,-1.599,-4.222,-13.779,21.515,-25.533,-15.501,32.673,25.839,-15.583,-17.64,-24.744,1.03,-0.787,4.763,27.647,-1.537,20.499,-0.439,26.485,2.744,19.783,-17.722,-14.173,4.649,24.286,-26.872,29.697,0.91,9.497,-18.488,24.863,-12.783,13.303,-28.152,17.059,19.022,-3.078,-25.235,-24.309,18.38,-15.945,-26.649,-20.846,9.165,11.013,-20.668,-0.049,-9.649,-0.914,-1.339,-3.937,14.5,15.374,3.57,5.326,-12.585,26.062,-26.26,-2.764,-8.456,2.089,8.172,27.002,25.728,19.791,-19.342,-3.442,-0.776,-11.448,-1.455,8.281,-25.521,-16.153,-26.286,17.927,-19.92,-23.225,29.946,-20.579,1.985,11.982,9.214,-29.674,-1.987,-25.494,25.801,-21.232,8.294,32.312,-9.636,-23.077,14.017,18.121,1.694,22.905,20.32,17.725,11.151,-15.241,-13.28,22.105,8.048,32.291,-12.872,19.783,-19.818,-3.238,-18.391,21.26,8.172,24.014,30.92,6.197,5.755,-17.241,-18.631,16.592,20.443,29.134,-7.589,25.881,-23.997,-17.635,-26.554,-14.201,-29.284,-20.624,-28.756,0.76,27.103,-29.044,13.874,-29.122,-25.987,22.934,-13.318,24.891,15.113,-16.024,27.17,-6.776,-31.815,7.669,10.317,14.629,-10.402,8.849,-13.526,-27.07,10.893,-0.366,-14.747,12.277,-15.055,20.825,-8.858,0.794,-13.167,14.13,0.723,6.389,18.112,-9.681,2.701,-15.457,2.927,-17.224,-8.175,23.819,-28.036,30.571,-21.377,26.645,30.461,28.896,12.295,16.086,25.85,5.918,-16.269,13.447,20.564,13.499,-25.085,11.081,5.661,18.783,-11.107,5.075,16.419,-20.677,-5.278,18.41,9.335,2.261,-2.212,-19.473,-3.27,-17.099,31.699,31.499,-10.117,-26.941,-1.234,-8.183,-22.24,27.449,23.155,-24.851,21.79,9.294,-0.702,16.541,-2.14,-18.588,-17.026,4.892,-23.112,4.681,-2.517,-16.477,-20.843,-7.376,26.801,15.653,4.394,19.512,8.091,20.54,17.281,-11.26,8.695,-19.065,8.083,7.813,20.654,8.602,-30.685,-14.533,-31.167,27.653,16.648,23.538,-28.479,-17.416,-9.684,-19.617,-32.681,-21.98,-24.957,28.447,-15.465,5.117,-17.96,25.141,1.298,13.421,-1.864,20.852,0.647,-1.471,2.666,-31.503,-23.533,21.86,-6.836,11.691,27.409,-17.777,23.625,-22.404,7.078,14.739,-7.962,-23.428,22.399,-15.999,-24.392,20.608,27.575,-1.932,-19.618,-27.919,12.583,22.456,11.016,30.31,12.617,-23.031,-17.427,31.698,32.002,-5.548,-19.747,-1.035,-32.551,-28.925,30.477,-1.19,4.875,25.942,-30.014,-7.082,14.085,-16.082,9.909,-6.388,18.182,-22.695,22.059,6.404,-3.908,17.441,7.192,2.4,17.242,-13.207,17.947,18.636,14.609,19.422,-26.759,-9.745,-14.423,-9.391,22.312,21.792,-29.217,7.548,-7.745,4.686,20.132,-31.925,-32.254,12.109,-32.357,-5.984,-29.733,-9.323,-25.678,-31.943,7.313,-16.215,3.205,-6.331,8.018,19.039,31.704,0.642,-2.696,6.107,-27.725,30.318,-12.747,-12.182,-13.23,-13.364,13.18,-32.492,-27.114,-24.285,-22.096,8.487,-26.912,-0.953,-30.104,1.64,-26.464,1.589,-32.675,-10.143,19.256,-1.798,9.091,-9.267,21.385,-30.008,23.68,29.446,25.909,7.559,15.37,-25.545,31.418,18.658,-23.948,-26.686,16.594,13.537,-26.834,19.687,-18.405,-29.319,19.771,-14.769,-6.041,18.962,29.008,-2.835,-29.008,26.637,-23.523,0.664,31.134,22.83,16.962,24.504,-25.415,-31.609,-24.347,-26.552,12.796,-25.873,7.046,-29.444,3.761,27.795,3.788,-13.258,2.697,-6.8,1.543,-18.274,-14.734,-29.189,-8.369,5.891,-0.752,-25.532,9.128,5.575,-3.325,8.099,-7.928,6.22,17.756,21.99,29.451,-8.813,-28.618,12.616,7.037,-8.703,1.176,0.19,-10.302,-9.849,28.047,-3.651,7.056,-4.045,22.728,-0.685,-19.627,15.314,10.16,16.259,15.569,26.046,14.627,-3.768,7.431,23.09,-7.097,-3.581,30.827,-12.16,-7.696,-2.655,12.805,8.865,8.476,-8.821,-14.082,-24.671,-10.92,8.705,-4.063,-23.197,4.991,6.236,-10.314,4.586,-20.379,-3.854,-2.048,4.16,1.925,31.647,20.863,-11.936,-5.848,-21.574,29.859,30.444,-18.795,8.687,14.343,5.58,-24.663,-22.077,22.064,26.375,12.76,-14.894,4.829,18.545,-7.249,-23.089,-12.919,20.166,-1.576,20.505,-9.622,-0.919,15.196,19.327,2.159,27.86,-12.397,-27.214,24.812,20.868,-21.195,-16.395,6.255,-32.512,-23.202,18.626,18.923,21.041,-12.826,-20.056,-31.416,14.389,14.469,2.889,9.655,-7.806,12.767,-23.706,-7.176,-10.614,14.977,-27.976,-25.837,20.262,-12.737,-20.221,-2.135,-9.232,24.405,12.268,7.811,-7.647,-17.767,8.467,-27.949,-6.852,13.788,31.416,5.719,18.369,-1.243,13.196,-14.36,-16.934,-1.097,-7.905,-21.122,1.367,-24.747,-31.439,-19.678,-23.626,-20.937,-30.889,-22.881,-12.951,29.124,18.961,30.247,3.736,24.795,-29.135,-28.968,-9.326,-12.61,-10.836,-11.833,26.915,-32.562,5.634,3.732,15.92,-16.672,1.511,26.592,20.568,21.97,-30.923,27.251,-18.815,-2.953,2.234,18.775,-20.303,-14.16,4.459,9.498,-16.414,-16.076,28.268,-19.916,-16.728,29.508,-28.278,18.549,-12.491,0.485,-22.98,16.825,25.76,30.276,-19.758,-3.461,-1.72,18.597,8.823,21.86,19.391,-7.722,14.225,-11.333,17.765,18.745,31.763,18.576,-23.261,-11.04,32.706,-27.846,-27.936,-14.645,1.834,31.23,25.695,-14.902,0.046,-8.333,10.716,30.414,-8.438,28.851,17.885,-5.252,2.553,14.53,-24.909,23.424,-26.719,-24.059,-8.837,24.261,-29.662,20.727,15.376,-18.048,-29.656,32.744,14.674,19.197,-6.049,18.879,26.397,21.374,-21.626,-5.027,13.495,-22.953,-27.437,10.237,-5.104,-4.253,18.662,-27.849,-1.319,-0.16,-24.297,-24.466,-1.677,18.658,4.216,-7.727,-17.48,22.746,-22.102,-20.953,0.487,10.533,-19.095,23.038,32.723,17.557,-26.135,26.18,9.161,-23.708,13.509,9.277,-25.725,-21.692,-23.849,6.639,10.842,25.183,-4.925,30.227,-28.425,20.241,-10.486,-0.614,-30.92,-1.022,-3.862,-11.584,-7.416,17.456,0.729,-10.443,10.958,11.509,-25.136,-26.953,-23.025,-20.364,-13.486,8.657,-7.631,-5.069,-13.572,32.084,-31.674,12.395,0.976,10.526,23.531,-19.474,11.32,-14.639,-1.055,-21.385,-20.022,-19.654,-10.692,30.691,-0.665,11.097,5.887,-18.816,29.696,10.07,22.652,4.781,24.15,2.521,3.257,16.138,-2.71,26.93,-31.771,0.031,27.415,-28.974,-27.062,-5.391,-17.815,16.473,31.816,-30.323,-14.799,-19.334,16.32,20.851,4.247,15.537,-17.149,-12.902,-28.009,22.561,13.547,4.246,2.656,-8.926,8.977,-14.804,6.021,21.524,-9.297,17.309,-6.226,-6.62,-32.456,15.401,26.241,5.209,14.376,1.281,-0.381,13.674,-32.716,23.5,-28.745,-16.407,-5.171,32.379,32.332,30.492,-25.618,-22.695,15.42,1.864,-32.416,-3.233,-13.258,26.187,17.653,-10.718,26.596,29.888,25.254,30.486,-8.909,25.938,-12.368,21.791,-4.477,-5.459,-1.257,6.32,25.051,0.594,-8.824,-31.374,0.169,-10.355,-22.964,-3.452,7.692,7.143,11.111,-22.583,-23.921,-12.097,19.521,23.083,-0.364,-24.614,-14.885,-4.272,13.018,-4.694,18.081,3.116,9.855,22.901,-6.33,-0.886,32.118,-19.901,30.177,20.533,-21.301,20.959,22.11,25.7,18.791,29.955,-28.187,-18.65,16.788,22.148,11.171,30.204,1.894,1.311,-32.534,-17.366,-13.446,-7.588,-18.411,-9.907,8.59,7.6,19.728,-28.939,13.978,-11.701,6.421,30.152,20.874,13.634,8.186,-12.104,-2.165,-26.319,7.759,-11.371,-9.928,31.637,-28.717,10.742,21.757,2.14,12.714,2.889,9.316,-26.505,-0.171,-10.137,27.955,8.984,19.007,24.755,7.257,24.713,30.953,3.717,3.53,-10.727,9.983,18.115,-5.944,2.416,5.928,-9.264,23.523,0.708,18.859,-8.239,24.062,31.041,-16.611,17.385,-3.889,4.254,22.075,-17.073,8.234,25.76,13.829,-19.488,14.017,27.802,-2.157,2.2,23.367,0.543,-4.355,-11.678,-11.754,18.302,-27.826,30.385,19.268,19.835,25.907,-9.34,-11.095,9.924,3.198,-25.337,23.606,13.061,-19.968,-24.684,-18.044,18.858,-12.728,13.671,-17.365,11.989,-17.132,12.765,-15.916,16.149,-6.918,-30.115,9.988,-28.27,-30.354,25.36,-20.828,8.494,28.077,-27.806,-4.156,4.422,-3.479,17.156,-5.422,11.663,14.439,24.158,29.535,6.211,-5.076,-4.31,-10.943,15.899,7.491,-13.227,18.23,-22.493,1.163,-0.83,-14.535,22.913,-10.639,24.958,-22.462,-23.414,2.524,32.192,-20.687,7.7,-21.381,26.762,0.413,31.83,-26.841,29.225,12.436,-26.062,7.538,13.098,11.911,15.576,29.482,-10.278,9.079,2.856,3.483,29.259,22.59,31.811,17.13,-29.989,31.564,-5.497,-18.61,-8.991,27.927,32.569,-8.327,-15.434,-9.689,8.764,-15.677,-22.667,28.445,29.109,16.019,25.404,21.388,5.964,0.158,30.938,-8.382,-5.548,-24.614,-5.791,28.454,19.573,-30.836,-24.475,-30.959,8.508,6.884,20.08,32.482,-2.854,-6.506,16.992,22.848,21.073,-18.228,-5.909,-8.299,-23.372,-15.32,-3.853,-31.745,-12.442,-9.344,-15.299,10.646,-12.901,-13.546,11.852,32.019,4.969,24.126,-30.773,-31.585,-15.321,-27.009,24.769,17.754,12.029,15.061,7.957,28.814,5.209,22.503,30.246,-12.64,-2.067,20.616,16.4,21.049,-30.432,24.353,-32.082,30.806,27.057,-2.757,20.557,-16.52,29.253,5.04,-28.233,18.841,-30.316,12.157,16.668,-13.681,-10.275,-16.105,11.258,16.479,-26.767,7.294,32.162,5.29,-19.391,-15.318,25.968,-29.317,-29.03,27.829,1.864,-24.796,-7.225,7.398,1.522,-23.809,8.24,-0.092,-15.688,-12.432,27.94,-15.231,22.171,18.338,-1.782,-10.879,15.179,28.57,21.263,7.141,9.247,-14.367,2.778,-29.286,3.819,31.747,-27.022,20.498,5.049,7.208,17.86,-13.626,-16.037,-2.84,-26.139,-14.806,18.004,20.306,-2.706,-17.479,17.989,10.216,14.837,19.116,-19.954,-19.3,19.123,-13.872,4.621,25.319,-9.937,-19.942,-1.21,11.118,-30.101,29.491,18.925,-30.154,8.594,21.05,-5.691,-31.401,3.765,26.185,-23.361,12.877,-25.089,-26.946,32.187,-1.236,-9.274,-25.233,-17.717,4.775,15.842,-14.207,21.662,14.333,-32.483,6.57,29.612,-25.67,8.296,-14.179,30.537,-20.106,23.671,27.908,-10.913,-30.437,-12.494,-29.672,12.414,8.896,-24.747,-15.701,-7.766,-27.519,-21.524,27.388,-16.316,-7.22,-17.827,-15.591,11.817,-1.11,-13.246,-3.821,-31.132,16.862,-14.527,14.168,31.467,8.095,7.763,-2.958,-32.177,-7.445,-27.715,6.473,9.873,20.733,-0.378,9.204,19.23,25.75,-26.72,-9.553,8.942,8.43,-3.618,-6.489,23.731,-23.38,26.826,-4.78,24.564,-6.084,6.045,-8.783,6.448,28.667,0.225,-9.879,-14.21,3.392,4.375,-3.022,11.557,18.221,29.387,10.596,-22.123,-29.785,30.881,-0.916,-25.646,-31.018,16.604,22.813,-19.626,-6.551,4.38,18.797,6.724,-6.804,26.298,24.803,-8.379,-28.31,22.93,0.904,18.819,32.046,-6.484,-3.374,-10.674,-9.78,-16.382,6.359,-17.246,-5.455,-11.666,-13.152,-19.387,12.556,11.617,-3.487,27.314,-23.908,-22.763,5.681,28.622,15.641,10.06,18.316,28.005,20.172,-22.874,17.949,-22.649,-22.418,-3.945,9.465,-1.251,17.131,12.129,21.596,-10.472,22.928,25.343,16.638,4.93,-7.925,-22.707,24.955,21.474,-14.487,-1.634,25.582,-17.454,-25.389,-16.134,1.401,24.31,-12.236,7.5,3.226,11.647,-11.276,-8.21,-13.986,29.964,19.329,-12.061,32.096,-2.475,31.799,7.977,18.506,-16.749,16.876,-21.028,26.251,-29.091,19.381,5.87,8.962,15.266,-30.301,5.645,-5.236,-31.527,31.275,-25.303,3.786,27.214,23.254,8.96,18.264,21.672,30.332,7.898,-31.427,15.53,12.581,-4.557,12.402,-22.117,20.883,22.086,26.618,20.683,30.892,-32.279,31.931,1.916,17.942,-23.134,6.017,-7.291,-8.289,-1.569,-19.326,30.963,22.114,7.184,-12.936,3.761,-19.863,-6.706,-15.643,-28.762,6.693,18.967,20.671,-1.615,-4.509,9.85,17.58,-10.945,29.973,29.234,-11.532,31.189,-11.402,-23.669,30.76,10.683,-21.574,19.697,18.173,-21.703,29.743,10.116,-25.702,8.596,1.228,27.865,-21.096,5.045,27.282,0.691,-27.669,26.549,-13.359,-22.967,-16.081,-5.377,-0.511,-7.317,-27.775,5.056,-18.027,-8.003,7.529,15.169,11.392,-0.97,-15.548,-24.59,-20.545,2.851,-15.62,-26.199,0.889,14.298,-1.333,25.809,-0.211,24.63,19.781,27.436,10.888,-31.393,-16.425,-32.562,27.958,19.148,27.902,-23.417,-13.578,-9.598,-26.225,16.425,32.038,1.109,7.593,-26.166,21.632,18.196,-5.223,-7.615,-15.837,-18.613,12.222,-23.654,-6.374,6.43,12.91,-26.371,-28.827,1.338,17.969,28.881,1.769,23.564,26.184,10.489,11.757,10.348,29.627,-21.615,-8.983,24.234,21.448,-3.464,-3.46,10.749,2.345,-4.957,-27.193,-30.093,-26.513,15.968,13.994,-24.417,19.134,31.633,5.592,-12.227,-21.891,19.835,-28.348,24.266,-31.153,-32.021,7.051,-12.668,-14.526,18.734,6.384,-32.681,32.628,-31.289,0.685,9.787,-5.214,12.859,7.957,11.302,25.675,-25.801,19.872,17.609,28.036,4.231,-11.712,-6.986,14.734,-23.292,-20.622,-5.712,1.152,-12.168,15.059,-29.143,9.819,-6.703,-5.201,-18.872,5.465,21.703,9.856,-32.475,-31.328,-20.379,-13.883,-13.654,-14.407,-7.701,15.273,-3.682,-12.057,21.953,-17.413,-32.084,31.409,-3.196,4.106,-6.285,17.638,-24.448,-24.161,11.81,21.457,-6.542,10.466,-11.16,-22.548,15.633,-1.011,-29.453,-27.127,-24.901,-17.783,16.03,-28.882,29.743,20.082,24.634,-27.407,-3.828,-26.647,10.031,-25.225,-25.203,17.131,-7.433,19.403,-23.298,-20.552,-26.091,31.519,7.876,10.008,-14.262,13.15,21.976,14.424,28.477,-18.378,12.267,12.064,-29.903,-7.857,24.052,9.158,32.485,-29.974,15.024,18.989,23.196,22.96,-7.066,-30.587,12.827,-13.615,12.027,-13.115,-18.391,7.51,-20.869,-22.026,20.935,24.087,1.979,15.826,7.195,2.239,-1.562,-19.588,-4.112,-16.782,-28.926,27.51,29.299,-19.271,15.085,-24.784,-13.057,27.962,7.512,16.535,21.19,-0.645,5.442,-9.893,-5.267,31.805,31.39,28.495,-27.547,-20.782,27.319,31.37,22.637,18.936,29.006,-9.809,15.073,17.831,29.279,0.399,-14.854,12.723,28.806,14.273,-28.072,-17.95,16.364,-1.551,-24.923,-20.019,-31.071,-0.208,-27.775,-8.605,-19.429,-13.515,-23.565,17.17,14.081,9.351,-26.361,-18.99,10.882,0.035,8.442,14.173,25.629,-0.842,6.478,31.152,16.735,30.067,-10.914,18.588,-7.64,14.681,20.035,4.184,-5.431,29.694,14.586,4.867,-11.197,-9.433,-18.039,-19.224,24.296,20.554,29.528,-22.154,5.329,1.034,15.53,-28.03,10.005,19.986,-11.493,18.594,-11.836,17.625,-5.324,-21.67,-30.317,7.589,10.168,-16.097,-21.435,-9.221,-8.057,12.568,-24.795,28.346,8.297,24.77,-27.627,-9.296,-15.682,24.052,-14.458,2.424,-18.86,-1.548,2.844,21.63,-15.603,-15.181,-17.4,11.327,2.773,-15.942,24.782,4.917,-1.909,28.036,23.945,14.138,5.268,-7.002,-30.842,-8.231,8.712,-10.329,-12.574,20.423,20.991,24.046,-22.52,-4.798,-11.928,-17.929,-10.643,13.419,-12.76,20.163,24.334,29.672,-12.729,17.55,-27.532,-3.912,19.45,13.897,-23.374,-14.756,10.911,-21.938,0.727,1.537,21.727,21.457,-4.714,22.452,11.6,2.993,28.603,-20.881,26.657,-11.793,2.8,12.342,5.144,-4.953,6.597,-0.446,-24.036,24.765,-2.624,-13.29,-10.019,24.289,-18.41,-22.669,17.985,-10.471,4.29,1.69,-19.819,-31.688,4.653,-6.338,-9.945,-18.911,-10.029,-12.323,-8.632,-27.614,17.35,-10.22,-0.505,-6.306,-17.766,4.363,-24.934,28.386,-14.434,9.996,7.446,-26.611,14.757,9.749,11.057,15.932,-4.26,-18.724,27.284,-7.654,-4.492,-1.504,25.198,-6.078,-14.808,12.998,-9.573,-4.424,-24.045,23.079,18.275,25.979,-8.431,11.053,-26.66,16.607,-19.769,-16.723,-3.285,-9.402,6.385,-18.38,12.979,-6.122,2.195,-5.371,8.939,-15.749,21.048,16.75,-13.303,2.194,17.339,3.388,11.91,-6.824,-10.337,15.69,3.38,-10.332,-9.002,11.19,-18.461,9.019,3.582,-6.365,-4.818,15.707,-8.475,-31.316,-26.434,18.184,-26.63,-4.739,21.759,27.22,9.133,-21.922,15.932,26.459,-23.826,1.598,-31.64,30.059,-8.587,-15.221,15.64,26.389,5.365,32.388,20.042,13.557,-16.156,3.5,-15.97,-27.23,9.431,-9.088,27.314,-16.234,26.777,-21.297,-11.415,8.756,-29.733,4.973,-10.507,28.171,-11.646,-23.365,0.136,15.957,30.509,7.867,30.81,27.627,-3.305,-27.812,0.305,-7.298,9.438,-24.963,26.064,-17.613,4.316,-5.687,10.737,-19.766,-22.736,3.608,25.028,-3.773,7.776,3.011,-4.012,-32.352,18.735,26.104,-22.057,-13.501,6.897,-8.466,32.464,9.781,-13.432,-26.773,18.838,-15.57,-5.049,18.417,17.987,27.582,-21.39,29.644,25.636,16.489,12.28,2.583,-30.37,27.75,5.032,17.134,-29.462,17.164,5.512,-6.475,0,21.552,-21.025,-30.495,27.53,18.029,12.073,-27.948,12.886,-26.511,-16.441,27.853,22.81,-0.67,-25.849,20.693,28.45,15.216,-6.49,-27.806,23.09,-28.188,17.759,-20.368,-14.505,27.914,-31.218,27.9,32.459,-20.587,16.575,9.126,-27.141,-4.633,-14.132,-18.861,8.173,18.417,1.627,-30.629,8.643,29.35,3.221,4.459,12.731,31.278,8.668,8.947,9.751,16.835,-16.729,-22.131,-17.779,4.645,-0.841,-31.59,5.249,31.737,32.429,26.052,-20.038,-24.459,3.527,11.685,2.529,5.776,-6.186,-17.293,7.472,-25.586,8.439,-10.82,28.408,1.61,21.953,-30.722,27.767,-30.629,0.401,-25.101,-2.554,12.436,28.124,17.033,6.164,-20.681,-30.994,25.79,1.613,8.719,3.292,5.697,-1.468,15.555,-21.979,31.009,6.941,12.212,4.802,10.273,16.979,-2.275,-10.506,-11.324,-27.03,-18.493,10.567,-29.53,10.53,-25.509,-18.362,0.953,-0.349,16.399,-13.44,5.515,31.887,30.904,-21.685,-7.191,-21.993,13.801,-11.967,-20.216,16.008,27.172,-24.25,-19.868,15.966,-6.686,5.066,19.333,15.279,-17.899,-17.02,-25.575,0.805,9.461,-23.582,28.878,15.081,4.84,32.52,-22.453,-3.631,22.894,25.936,-2.288,10.398,30.55,-20.493,-29.989,-9.277,-28.318,25.081,2.062,-16.074,18.756,-2.109,20.096,4.311,-5.056,24.288,-18.736,-30.186,-16.969,26.819,-19.659,13.648,12.817,9.975,-28.161,-27.71,-7.409,-27.826,-26.343,-22.745,-7.252,-22.987,1.489,-16.777,-22.485,31.671,-17.361,-8.973,17.361,-2.446,-0.225,13.214,-9.163,9.051,-6.648,7.401,-26.401,23.845,-27.054,-22.921,1.744,-8.549,22.818,25.564,2.956,-5.223,-13.717,5.054,28.357,13.214,-18.362,-15.374,12.356,26.789,-16.444,-23.36,19.207,16.192,-30.483,-4.492,-18.208,-11.26,18.592,-20.831,13.631,24.629,13.047,28.41,3.789,26.044,-21.805,-4.392,-16.943,13.912,32.72,-2.433,13.861,-23.168,28.277,8.938,-28.061,-0.205,-23.205,-24.317,16.585,24.111,22.19,13.98,-7.095,15.459,26.829,-5.907,-31.739,32.737,7.29,11.889,28.44,-24.703,19.365,22.979,-11.238,-11.348,-15.794,21.985,-16.109,23.397,3.495,0.52,-15.767,10.255,-31.469,18.466,26.403,3.875,32.267,14.911,-15.639,31.224,-5.785,14.594,26.495,7.027,25.161,-14.943,-7.527,-30.706,25.754,14.056,17.463,20.059,26.839,-13.175,29.655,19.933,-18.259,13.824,-29.962,7.38,6.878,0.445,22.646,-28.19,28.768,17.804,16.95,17.07,-30.986,11.736,20.928,29.952,11.999,-17.127,-22.608,-32.116,-32.545,6.887,-11.9,32.189,15.955,-16.036,-10.021,16.78,15.394,-3.186,0.366,6.624,-28.538,-20.45,31.336,19.656,2.879,-20.836,-15.591,0.613,-13.175,30.643,3.011,22.956,-19.804,3.077,-16.145,-16.714,1.996,11.22,-26.359,-12.405,2.345,-30.299,-15.708,-4.097,24.513,-10.74,-26.144,-3.796,-27.04,-15.145,-19.204,-13.102,-3.277,-10.451,7.968,-13.611,16.749,-12.123,-25.738,-3.544,-20.878,11.977,-14.323,-21.827,13.52,18.978,19.947,20.039,12.308,-13.268,0.349,0.944,24.419,11.626,0.475,4.327,22.426,-18.313,-14.098,9.049,32.102,-22.581,17.926,22.035,-2.701,18.813,-16.218,-14.23,-0.063,14.034,24.373,32.591,-22.377,-21.843,21.598,-32.681,-31.425,31.06,20.737,23.983,22.395,16.364,15.982,-30.89,1.435,-26.868,-29.668,-23.275,-4.961,-28.826,31.503,-27.848,-6.346,-3.302,17.334,19.533,5.243,-4.389,17.913,31.509,-29.456,-31.751,-32.16,27.494,-13.092,4.889,-27.379,0.687,22.984,30.932,-19.431,17.799,25.09,-24.285,25.163,-5.82,-31.054,18.619,-6.533,-5.66,29.01,-7.391,8.969,27.844,-10.706,-27.349,-20.097,-24.972,-23.751,25.204,-30.267,-12.426,-9.652,-26.18,-23.626,-15.18,29.115,22.883,-28.433,-7.999,-29.155,32.593,-0.499,-24.781,-14.498,13.456,24.16,-19.081,-13.841,-5.616,27.833,6.004,11.602,-4.927,-16.11,-27.059,8.395,20.974,29.669,27.924,-1.133,-9.297,9.24,-27.231,-29.579,27.035,-0.748,18.04,-4.237,18.344,-22.375,20.722,-2.777,-30.816,26.072,-9.457,-16.411,-12.789,-14.931,30.647,4.046,-12.719,15.207,27.305,-6.259,-27.605,-11.55,-19.351,-11.173,29.267,-27.803,-28.753,27.36,0.266,-29.065,-16.806,-10.947,-29.455,-5.738,24.218,-18.902,-21.971,4.505,-8.537,-13.723,19.291,-24.572,20.024,29.787,26.752,-30.732,-8.575,24.98,-19.014,-24.38,7.098,16.056,-7.881,17.682,8.052,10.607,-2.522,-24.113,-30.242,7.076,-19.238,1.678,3.776,-20.969,15.938,-29.346,8.386,19.797,-20.524,-25.066,1.694,10.909,7.148,21.003,24.754,-31.929,-2.165,0.972,21.614,-24.55,-4.253,-31.297,10.541,-0.961,-17.862,17.118,23.535,0.588,-12.248,-27.968,-16.406,2.307,-12.676,27.564,-4.222,12.797,-30.167,-3.752,-15.232,-3.896,30.371,-7.602,22.527,21.369,-11.15,-25.337,-21.378,-23.619,2.339,-18.252,-1.291,2.311,17.135,-30.992,13.823,-4.006,31.911,20.304,-29.175,12.754,-19.298,-8.496,15.299,21.946,-12.69,27.513,-23.239,23.97,-30.131,-9.801,16.612,5.723,0.926,15.004,-21.935,-8.73,23.364,-15.885,-30.076,19.711,4.996,3.182,-18.537,-8.147,-13.201,10.896,13.968,-24.66,25.393,14.849,15.029,-4.785,13.082,27.256,21.623,-3.779,25.806,10.392,-18.679,29.222,-6.562,16.026,31.825,18.394,-20.693,-2.673,-18.709,-30.097,-7.082,4.406,-3.953,-19.655,-21.334,13.113,-29.619,22.116,-13.325,5.125,21.318,24.983,30.641,-2.793,-3.115,12.681,-12.726,-13.256,-5.819,21.222,25.43,12.251,10.541,-9.799,30.14,-15.435,20.857,-32.024,-16.83,25.961,32.099,3.958,-22.415,-0.133,-17.376,-14.011,0.235,-16.366,18.834,-29.089,19.678,4.582,23.969,21.569,8.371,26.948,-3.842,-12.109,4.492,13.902,-26.446,-23.394,-31.593,29.791,28.865,18.158,0.204,19.442,1.057,23.86,29.818,-28.751,13.281,-0.575,-25.391,8.916,-25.608,-0.074,-12.8,8.937,10.694,18.13,25.965,15.334,30.766,8.302,-24.522,0.442,26.731,13.073,0.014,-4.183,-7.983,-25.961,-6.504,-6.747,5.62,-30.454,-11.696,28.941,-2.195,-12.428,-31.517,-11.22,-5.859,21.995,16.206,17.766,-23.192,6.938,17.192,30.963,-7.901,14.771,12.176,13.185,32.452,9.52,-8.914,2.639,-10.993,-2.056,-12.579,11.525,29.678,28.594,11.584,-9.395,-19.423,-4.454,-19.229,-9.725,-9.998,-24.451,24.219,-24.438,-21.086,-21.054,28.165,24.107,5.808,9.615,-1.342,-26.412,19.78,-15.326,23.419,17.959,2.551,14.605,20.698,25.072,-15.572,-26.731,-21.106,14.102,-29.997,28.611,19.433,26.776,-18.579,16.564,10.418,2.815,-25.603,13.038,-20.679,-21.402,19.347,-4.85,27.156,-3.425,19.458,-23.573,-14.576,-4.471,14.414,11.264,8.734,-13.553,-26.399,18.684,-27.1,14.546,-11.854,-0.325,0.371,7.009,-0.119,11.586,28.718,18.135,9.843,-5.778,10.569,-16.619,-6.694,-14.697,-19.591,-32.259,-10.725,-26.463,4.904,30.795,7.476,-29.217,-9.832,6.973,-23.371,2.317,-22.61,-23.466,17.973,22.849,11.568,-15.374,-0.367,-0.061,15.398,-18.616,-2.334,28.582,-21.074,6.607,-30.502,0.904,14.804,31.486,-11.664,-7.182,18.583,-21.249,-28.447,-29.169,26.203,17.052,25.918,22.682,-5.548,5.933,16.358,6.938,-26.074,-11.428,14.009,-32.628,23.057,-11.962,-12.792,14.998,3.182,-2.171,27.198,-25.771,2.903,-10.561,21.83,11.965,0.278,17.54,18.532,-4.407,27.512,23.293,23.749,-4.326,8.528,-28.008,-1.503,15.35,4.591,-20.77,31.786,12.845,12.235,23.35,-5.795,-7.148,2.285,-32.606,22.87,-23.939,-28.013,31.08,-22.939,32.003,-20.706,21.615,2.418,14.219,-8.692,1.207,32.571,-28.086,7.408,-20.757,-17.215,23.219,-5.229,21.188,-13.137,10.732,-24.504,0.136,-31.83,-0.473,-21.59,24.978,23.141,26.736,31.739,7.317,-17.869,9.431,12.776,-1.591,12.634,-18.36,-14.994,31.135,25.835,-25.325,-1.57,-11.277,8.753,-3.426,-26.913,-3.272,1.842,6.15,-0.412,26.861,19.641,-0.603,28.41,-19.854,-10.506,31.051,5.446,-6.02,20.459,10.416,-12.581,19.483,-13.622,27.982,-9.5,1.097,-27.846,-8.579,18.565,23.832,-11.2,-28.672,-9.171,-21.551,32.653,-13.825,-30.718,-28.679,-19.165,-11.912,-13.639,-27.63,11.64,-6.364,6.274,21.17,24.477,12.574,-11.49,24.678,16.282,-10.6,30.197,-24.951,30.353,18.248,1.593,18.499,22.412,0.22,24.261,-1.972,24.387,21.406,29.94,12.163,31.272,-8.974,-0.541,-18.438,-15.19,-23.564,22.531,27.425,32.022,5.635,21.055,-8.944,30.329,1.789,0.701,21.324,9.756,30.694,-2.234,31.007,0.097,6.495,-16.6,-7.618,14.817,-3.6,7.865,-28.852,14.122,12.221,4.282,-28.878,1.495,22.754,28.339,-19.862,30.566,1.784,-16.768,-18.108,29.251,30.696,-20.147,-17.786,-18.488,-15.406,27.937,23.893,-27.066,-13.997,10.242,-11.867,2.92,-5.738,-24.848,-7.221,-29.083,-14.725,-25.35,20.164,-5.977,20.026,-6.663,-18.86,-8.691,1.434,-21.303,23.661,20.001,30.695,-2.065,14.229,31.092,6.062,-25.614,3.828,-32.01,-1.226,0.777,-16.896,5.051,8.059,18.771,-30.466,23.679,31.779,-17.15,2.91,-1.316,-15.226,26.302,3.461,-7.555,20.268,19.091,19.306,28.482,-23.511,32.645,-9.138,27.111,10.822,15.636,4.424,25.071,26.567,-14.544,28.855,4.684,-17.544,-3.614,-8.489,11.342,7.991,29.933,32.35,-0.35,0.432,0.622,-11.626,31.099,24.761,-1.036,-21.386,-17.386,23.393,-23.994,1.838,-22.2,-5.632,32.162,21.557,13.719,-21.145,-14.113,7.662,-24.937,9.579,-25.553,27.72,-18.645,-24.959,20.068,-3.269,7.451,-18.339,-24.221,32.294,-18.868,-23.889,-27.326,-30.391,-12.682,-12.683,-24.152,-19.325,-30.359,19.308,-18.311,22.405,-30.773,-21.162,10.787,1.365,19.432,-10.974,-23.881,-27.034,3.285,-29.977,-0.701,-25.885,10.151,-13.703,18.039,-13.773,9.197,-29.313,-8.571,22.311,6.018,24.249,14.579,-11.821,-8.9,12.398,15.174,22.867,18.817,-29.241,-22.225,-12.439,14.985,-26.571,7.25,17.9,4.071,13.033,-23.888,-20.776,-29.116,-25.979,-21.849,24.423,-25.926,22.355,30.769,-12.9,10.257,-1.725,23.735,-31.93,-28.136,13.324,-5.11,-1.815,-19.335,-20.516,-1.602,24.091,-28.2,2.301,-28.032,10.551,27.992,-24.461,32.494,-4.459,-26.215,12.202,-15.662,-32.544,-6.718,-0.46,21.299,3.426,-10.353,-1.052,-30.715,8.647,24.553,-24.347,-13.59,-23.444,-21.531,7.966,4.021,11.584,-11.848,-10.981,-24.065,4.127,32.414,-19.663,27.857,-11.764,-8.171,-28.681,-26.531,26.373,11.681,25.428,-11.814,13.949,26.817,3.975,19.499,-15.81,9.761,22.104,1.874,26.72,10.159,-0.246,-30.995,-7.34,-16.447,-10.599,-16.167,-24.331,-10.114,-10.851,-21.073,-14.665,-25.582,21.224,-23.215,6.357,3.491,12.383,11.421,17.285,-2.993,31.847,-19.312,15.955,-29.188,5.211,14.109,-19.756,-0.62,7.616,6.687,30.519,-8.733,22.25,11.202,10.462,12.034,-19.419,6.463,27.193,-16.875,25.699,-13.318,-31.232,-8.637,29.366,-25.414,28.765,-18.741,-13.392,20.458,-24.467,-11.69,26.166,-20.246,-12.97,18.485,-31.763,-22.772,18.002,-14.398,20.769,29.326,17.594,-24.933,17.846,-26.88,20.4,17.16,19.477,-26.523,-19.55,1.494,2.024,22.102,-0.324,32.633,15.741,27.984,26.706,-15.739,18.198,31.781,-26.656,21.693,-25.586,7.705,-10.539,-8.808,-26.211,-16.263,-30.596,-26.952,9.439,11.18,15.354,-27.469,-1.063,6.911,22.887,-7.082,32.295,-11.32,3.177,5.4,32.304,-30.762,-20.517,3.122,13.593,5.766,-13.076,-29.861,-30.355,-2.223,-2.342,21.16,32.342,25.34,10.971,7.137,32.305,-29.674,-8.684,-20.891,28.409,-9.97,19.288,-3.012,21.704,17.015,-32.432,23.539,-7.097,13.347,29.338,-32.441,24.242,29.854,-3.151,25.444,-22.646,19.221,-24.94,-4.225,-30.553,6.225,-24.796,-18,31.092,10.568,-29.126,-31.778,-14.144,-25.694,9.324,16.358,-6.597,-24.495,10.159,10.228,-28.942,-3.731,25.76,-3.759,-12.631,3.15,9.955,27.953,-31.217,-27.633,1.36,4.138,-2.201,30.597,25.537,-8.915,-22.721,-19.847,-29.751,-22.67,-10.944,-24.87,-31.259,28.427,16.287,-11.898,19.441,-15.68,11.465,1.282,24.816,26.027,29.343,28.766,5.267,3.731,26.53,-10.932,-21.495,18.765,32.149,-28.125,14.062,16.151,-30.143,1.111,14.856,23.031,22.282,3.262,22.118,25.104,-18.933,8.508,13.857,14.81,14.86,10.595,-3.481,-32.009,-11.69,10.472,7.987,-29.909,28.507,30.581,-23.26,9.55,-14.261,-21.443,22.281,-6.035,-19.145,25.917,10.607,23.259,-25.569,-30.889,-9.171,32.23,25.564,18.643,-23.531,28.626,31.434,-2.112,16.371,-1.285,-15.109,4.88,12.441,-1.257,-24.176,30.291,5.413,-15.448,22.303,17.315,8.671,31.772,-17.566,-27.826,0.4,11.49,-0.831,-16.573,-5.696,-4.414,-8.452,5.988,2.339,-12.246,-9.742,-22.417,25.994,-12.84,26.389,-28.77,-21.754,6.975,-6.202,7.738,-26.945,21.505,32.351,-18.304,30.451,5.083,-3.617,10.734,12.327,17.47,-0.333,-16.815,13.268,5.243,24.496,0.592,8.21,-17.806,-0.646,-5.682,-23.504,-9.133,25.738,-21.955,-16.156,8.112,4.41,-4.372,-30.545,31.048,-6.151,24.916,-27.067,20.979,20.549,18.033,15.532,-6.049,-5.982,12.67,25.941,4.387,-11.724,-20.388,27.443,-3.184,17.848,-2.497,14.972,21.644,-18.219,5.34,-9.967,12.486,25.15,-5.154,-31.346,24.994,-20.725,14.205,-2.375,-2.191,-28.468,27.271,-2.01,8.72,-24.296,-7.043,26.443,-14.235,-31.478,15.326,-0.679,-0.861,-17.345,1.983,9.142,-17.665,-16.523,-27.101,0.66,19.571,9.676,-30.906,-27.621,-13.704,-3.232,1.865,6.51,18.585,-19.304,12.733,-29.906,1.53,-23.24,-16.863,1.068,28.183,5.262,-10.887,17.801,-18.389,-16.855,12.739,7.51,22.297,28.125,26.772,-30.242,-8.028,29.494,-1.527,19.256,26.856,9.783,-14.245,-15.492,-29.25,15.856,32.162,2.487,14.394,-6.396,-1.356,10.745,-22.833,-28.945,-17.503,28.525,4.192,28.64,-19.991,-28.236,14.341,-0.401,-20.41,10.189,7.165,31.163,5.286,-1.742,6.296,-8.801,-28.486,-9.144,31.058,-18.851,-29.798,24.001,-19.05,13.636,31.24,28.658,-21.332,-18.458,-15.791,0.108,6.882,-30.561,-14.159,3.788,-26.894,-13.431,-7.425,10.357,24.503,6.015,-8.474,-21.906,10.281,15.665,10.036,-15.525,-13.444,17.095,-12.044,-17.684,20.658,22.934,6.867,-29.914,-32.05,8.129,7.192,-15.195,8.48,25.117,-1.481,-25.541,31.149,-15.585,17.679,-0.449,-1.014,-26.74,31.138,5.648,21.694,-4.783,19.818,-4.559,9.956,29.532,-32.506,-7.815,-29.271,-22.757,-23.909,16.55,-17.274,29.561,20.726,32.502,-31.565,-3.738,-13.186,18.968,-4.645,14.726,-9.45,25.799,-31.967,30.148,-28.492,-31.871,-27.209,-30.201,27.63,-20.326,-28.293,12.706,-22.877,26.733,-26.868,19.461,-4.031,-22.107,15.37,5.22,-13.503,-4.304,-4.124,-12.77,-11.295,25.248,-11.544,-10.708,28.465,-13.28,-27.247,-10.026,-10.278,-26.947,31.566,20.451,-29.626,-6.289,24.531,-12.476,15.256,-11.35,17.531,-25.65,-30.489,12.228,-5.636,-31.298,-7.78,-18.112,-0.522,-30.979,25.44,-13.445,10.723,-1.139,8.355,31.04,28.374,20.58,-11.974,27.818,12.583,-7.258,31.264,-11.838,-19.585,32,-15.013,17.739,-20.416,-17.069,-14.921,7.285,32.192,26.963,23.941,16.377,-19.493,21.154,22.929,-17.945,17.045,20.929,-5.892,-9.536,14.802,-18.755,-26.021,13.634,19.755,9.345,-20.822,-16.242,29.986,-31.726,-3.374,-14.175,0.175,-10.586,-10.992,4.419,25.559,-28.857,4.889,-14.866,-23.084,3.128,-3.932,-11.501,-8.814,2.6,15.658,22.131,15.311,-8.641,15.266,-23.657,28.412,30.751,-11.423,-21.022,-30.886,10.287,-12.43,-9.783,-6.034,-10.143,-21.378,31.923,-20.698,25.509,-5.714,17.405,23.815,-11.315,-18.619,-26.441,26.152,-31.228,11.615,-14.476,28.654,8.717,15.744,-30.772,-15.212,-10.721,28.264,-0.688,11.055,-7.472,-3.637,-5.425,-8.758,5.801,-3.929,29.724,18.186,11.169,-13.952,21.49,-32.228,-12.614,-29.309,24.787,13.274,-29.748,8.249,-6.033,28.041,-22.087,17.85,-20.865,18.252,26.519,-16.252,-16.05,28.35,6.302,-28.621,-16.967,26.813,-11.426,-8.951,-12.468,-10.753,-31.759,14.89,-2.881,28.316,-7.899,11.629,-24.379,8.806,-1.057,2.577,17.095,11.804,14.391,10.715,-30.423,-10.034,18.623,3.343,-31.115,-25.603,19.211,7.183,11.461,-22.144,-1.453,22.663,4.623,-23.3,4.341,25.292,-7.73,6.86,27.51,16.271,10.538,12.571,7.503,-24.514,30.336,0.596,2.91,10.492,-2.326,10.472,-9.817,-29.675,23.899,31.611,0.116,-2.201,-20.255,-13.809,25.729,23.766,11.155,-0.151,-8.793,-18.291,32.196,25.752,-21.491,-29.671,32.045,32.188,-17.655,29.3,29.472,-12.386,-18.519,-20.804,-32.739,9.772,-0.839,27.717,5.406,-31.575,9.051,31.981,-0.539,-23.955,-0.399,21.905,27.217,19.157,11.096,19.405,-6.535,-8.212,-15.729,-30.587,26.154,-5.59,22.74,-11.407,-10.153,16.889,9.271,25.007,-27.545,-31.406,13.581,-15.881,-16.463,10.006,10.645,-16.237,19.834,-25.522,11.177,18.581,-30.44,16.061,-25.52,-7.16,24.834,3.535,-3.105,-4.534,19.918,-29.696,-29.115,-30.222,-29.496,3.146,-26.366,8.864,-8.699,-30.112,0.899,2.066,-29.27,10.482,-5.651,-29.804,-2.392,-0.76,-22.835,-27.087,-25.55,11.761,-2.023,3.471,31.361,-14.216,4.786,-13.532,-5.605,29.716,-2.963,-29.853,27.007,-30.495,28.863,10.693,10.09,-16.462,26.186,19.704,27.076,-8.493,6.838,25.79,6.723,-14.791,28.821,10.512,-4.362,0.785,15.998,20.209,-8.613,-21.872,-10.554,13.3,29.403,17.552,28.079,5.44,-14.757,-23.919,-27.748,27.987,18.715,19.544,-7.195,-14.513,11.846,1.54,-11.839,-15.043,-6.695,8.659,24.521,-30.625,17.889,-28.106,15.106,22.88,6.609,-22.698,10.638,2.223,-23.028,19.248,29.143,-32.722,30.15,31.937,29.458,-8.934,-19.141,32.382,25.686,-13.882,6.777,-0.57,1.325,-26.938,-22.285,-14.57,-7.582,8.578,-16.723,-21.594,-31.521,21.977,-23.057,-15.017,-5.616,-4.482,1.452,-31.233,-32.744,-22.051,7.79,9.142,-16.919,21.191,-20.833,19.995,31.58,-13.972,-30.894,-24.453,22.226,1.549,29.12,-20.288,29.754,9.42,6.738,22.594,15.43,-2.919,4.159,13.098,-24.38,-26.896,4.019,26.211,-14.347,31.275,-11.184,20.044,26.095,-3.058,-30.977,-4.273,-3.043,-25.852,-30.674,-28.583,11.385,3.087,17.241,-8.65,7.868,7.595,5.11,-16.817,-20.987,-15.823,-30.203,-31.181,-27.016,21.394,-28.57,14.324,8.407,5.184,10.033,5.375,31.906,19.733,-9.619,7.153,10.559,23.883,-24.602,24.762,19.908,14.074,20.068,29.092,23.714,-13.703,-30.516,-14.669,23.521,-1.411,2.678,0.973,-30.478,26.469,7.962,-27.384,12.308,20.505,11.015,-10.978,21.306,-5.106,-6.029,-13.326,22.374,-16.554,22.557,1.363,-5.156,-28.312,-13.09,-4.117,-20.381,1.724,22.897,26.719,11.647,-15.16,23.087,25.187,19.437,27.11,-3.048,-15.57,21.597,-8.768,-10.972,0.212,24.703,3.823,-6.196,31.501,5.706,17.52,-9.598,-26.358,3.657,-27.902,-15.981,32.039,-10.856,23.623,22.248,18.933,-17.639,-11.992,18.07,12.159,32.352,-7.809,13.135,32.569,-24.458,-26.075,-26.389,-28.604,-10.251,-6.141,-6.35,19.611,-24.646,-15.092,-5.824,3.748,-24.628,-8.407,-18.431,10.479,0.474,16.345,-16.336,-27.598,-20.821,31.153,-32.414,27.876,10.101,-4.48,-7.804,-28.335,24.945,20.768,7.394,-18.594,-18.298,-4.914,-14.606,-21.629,25.767,-15.176,-25.476,23.003,-23.128,18.318,-0.837,32.753,10.258,-1.263,7.929,17.999,-1.443,-13.573,-20.537,22.98,-20.621,-22.505,-10.054,-15.953,-3.23,26.699,-11.708,-30.418,-3.59,-6.546,-18.111,26.768,4.976,-11.535,0.539,-28.988,-4.837,-31.618,-28.147,31.086,7.512,-27.572,22.001,-16.719,-20.345,-6.129,9.057,11.722,-6.803,15.51,32.215,18.446,31.129,25.471,-18.142,29.312,16.148,11.16,-18.446,-16.303,-24.216,7.661,-32.721,14.337,16.667,-12.269,10.77,-9.384,26.326,30.139,-28.411,-12.863,6.477,2.685,-24.385,5.116,-2.088,-8.662,14.445,21.178,3.542,-25.27,22.569,-8.549,31.198,18.289,-17.301,24.941,-2.012,-9.095,-5.09,21.12,22.377,-1.769,-27.602,-22.987,-23.27,-24.195,-2.58,4.02,1.596,16.975,16.759,10.7,28.463,-27.204,32.712,-24.728,-2.01,11.593,0.813,-9.933,19.389,-2.56,-16.091,-29.457,-16.169,-3.493,25.932,-23.286,-19.135,-5.634,26.844,-19.294,-11.215,9.139,-11.956,8.285,6.896,-6.472,12.252,-15.484,-15.252,17.114,-15.198,23.698,29.157,-3.668,-28.597,17.813,-2.278,30.015,8.185,-0.392,13.222,27.907,11.933,1.005,-7.786,30.534,-21.566,30.716,-18.077,-3.26,-4.346,-7.594,-21.534,2.512,0.568,-2.434,-7.837,-28.806,-15.253,-26.878,31.786,-15.054,18.805,1.569,0.303,-29.943,17.75,-24.662,-32.435,-23.348,-15.547,-23.803,7.897,28.116,8.533,4.317,-29.439,20.02,-7.903,17.962,18.226,23.29,-19.379,5.594,10.996,24.298,-7.277,32.565,-7.844,12.872,24.207,-2.887,-5.01,-16.257,19.949,-3.621,9.715,-24.28,1.594,4.933,23.6,15.857,-24.396,-17.582,11.554,-8.381,-25.863,-3.713,15.496,23.882,32.437,-5.694,-23.921,22.269,26.09,24.271,-13.771,-12.837,8.705,-9.942,-6.72,-2.098,13.041,-4.958,14.981,-10.239,-25.262,17.47,20.852,-32.76,14.239,-19.078,15.775,5.865,-4.572,32.124,24.771,29.224,31.846,-11.696,-19.614,5.195,18.636,30.472,9.732,-21.677,-18.943,0.006,-10.221,32.02,-7.853,-14.765,30.221,29.305,-22.02,-14.342,0.074,30.988,-14.96,0.486,-25.375,-29.948,-12.714,-3.572,24.185,-11.338,-31.085,-22.625,-8.308,-23.314,29.611,30.859,-24.777,-18.019,12.061,21.579,-27.166,-28.588,-23.483,14.904,9.402,-21.17,-13.254,-24.359,-28.416,-28.671,23.952,-2.811,24.689,16.634,-11.078,7.142,17.522,-16.032,18.327,20.739,4.206,-30.28,-20.771,-18.519,11.049,6.35,2.584,10.675,28.033,-19.514,-28.486,-24.496,-25.569,23.179,4.381,2.459,-11.697,15.031,-31.234,5.281,-11.639,-5.982,-9.082,-32.411,-9.016,22.263,-21.912,-32.263,-22.174,3.313,-21.729,17.554,-25.785,-3.349,21.142,23.694,4.75,-22.136,27.14,-8.09,17.365,-23.199,29.983,-13.913,-19.786,19.042,-20.693,26.994,-21.935,-26.431,24.489,9.893,30.582,14.338,16.152,11.898,9.614,31.937,-26.866,14.762,-15.636,29.695,32.429,29.898,-2.144,19.26,16.682,-19.239,3.982,14.072,3.373,-2.019,-29.3,5.735,28.322,31.424,-22.53,19.967,-17.619,20.962,30.547,-4.398,14.266,24.891,30.874,1.475,27.667,-19.961,-24.28,-32.075,-29.582,23.969,-22.753,9.259,32.569,-22.379,-4.599,-11.953,17.677,15.51,-6.122,3.496,-26.666,-15.723,-20.736,-23.546,27.678,-6.063,-1.057,9.294,-12.799,31.953,27.968,-25.726,-6.504,-17.07,12.196,24.611,-21.37,-19.061,-6.027,-17.533,-14.839,4.435,24.517,23.852,-17.056,19.841,-31.086,18.222,32.693,7.845,4.985,-24.478,24.262,-17.894,-26.552,-19.413,-14.306,-25.595,3.14,20.811,-0.647,-5.915,25.685,28.087,-28.49,-17.282,-21.416,-13.626,16.509,3.505,-10.551,-3.658,32.522,32,-28.658,-14.313,-0.427,-19.885,-12.17,-13.456,31.424,14.377,31.661,-1.052,23.596,23.537,-28.456,5.167,-12.104,4.043,-32.671,-11.549,-9.305,17.595,31.742,29.351,24.576,-27.081,8.17,-2.854,30.127,26.579,-30.02,11.282,25.938,-24.636,3.126,-13.596,24.372,-22.761,10.469,13.189,23.55,14.238,-2.255,4.506,2.594,1.694,30.397,-10.222,1.38,9.097,12.198,-28.128,-29.165,4.579,26.308,-22.552,3.515,-5.975,-2.48,0.029,25.824,-18.04,-0.04,-31.966,5.968,-4.793,-13.42,-26.509,-10.96,13.76,6.098,-11.947,9.571,-6.426,13.185,4.19,-20.45,-11.51,23.173,-16.635,6.631,-7.427,6.923,-12.712,18.391,-21.968,-4.3,-28.818,-25.388,14.92,3.406,18.186,7.575,-1.495,-13.741,17.881,25.128,27.976,20.683,-13.033,-24.622,-8.157,20.118,-29.665,-2.052,20.53,-13.651,0.964,30.144,-22.247,-0.183,17.821,-15.108,10.872,-1.157,32.493,5.065,0.853,-14.767,4.113,2.604,18.705,-2.476,-18.395,-11.765,19.26,2.65,-23.804,25.34,-20.496,-29.357,-8.414,-31.433,6.906,16.539,26.343,-12.943,19.117,-25.345,-2.065,20.16,12.768,-27.016,-21.611,0.094,28.01,-2.654,27.194,-24.188,-3.616,28.745,-14.679,-19.913,7.679,5.219,25.279,-29.758,17.65,-14.255,12.255,-29.099,25.675,-9.002,6.492,16.121,10.591,5.773,27.51,-29.564,14.943,-13.2,31.994,30.806,19.745,-25.626,-21.947,19.794,-21.733,30.685,6.562,-7.084,-10.052,21.634,-12.647,8.483,29.343,-15.915,12.754,1.191,-4.077,-17.607,-14.553,-20.894,-16.346,-27.175,-31.03,14.421,21.414,-12.955,17.564,-10.124,21.351,-3.866,-29.858,7.921,-31.286,-32.458,26.039,-15.917,18.319,-23.015,-27.923,26.636,-16.121,24.055,-1.755,19.993,-18.654,16.22,22.677,0.189,-1.1,19.187,-28.585,2.951,20.525,27.934,10.409,13.739,-26.115,-16.511,-2.723,-23.154,26.47,-28.265,-3.587,30.48,24.266,13.733,5.292,-9.503,21.498,-27.038,-13.691,-21.588,-30.288,27.757,32.601,-7.047,-19.552,19.139,-26.575,-15.067,-24.058,-26.116,-12.969,12.904,-21.408,-11.077,19.106,-14.424,-9.964,8.991,27.897,-26.215,23.358,-18.194,-29.41,-19.318,6.848,-19.223,14.335,23.533,-23.619,5.221,-30.622,16.353,11.905,-27.072,-11.635,-31.153,18.017,-14.735,19.473,-6.337,-0.399,21.873,-4.273,-23.066,4.872,-28.018,-17.09,29.358,-16.664,12.372,2.843,-11.336,4.434,13.08,15.396,31.009,19.715,-13.75,23.275,-14.104,-29.974,-25.14,18.356,-7.736,10.916,13.458,-3.126,-12.163,23.154,5.95,-9.792,28.628,31.687,-10.924,-1.643,-5.266,-21.979,-19.702,-21.895,-8.657,-8.18,-0.631,-11.676,-17.841,24.483,28.714,-7.106,23.907,-1.036,-30.105,-0.638,11.882,10.098,-30.637,-10.754,14.126,-11.446,-0.001,-7.309,-16.575,21.805,32.414,24.666,-17.033,15.34,6.798,18.233,-11.763,5.504,18.328,-17.935,-3.481,16.408,-0.218,-19.238,25.16,4.356,-17.368,-23.875,-24.944,24.638,-9.225,6.762,-16.56,3.516,20.927,1.234,-11.127,-6.358,6.859,12.484,-5.654,5.924,-6.385,-6.345,14.058,-18.019,-3.01,27.221,-17.484,25.33,16.582,25.154,11.874,24.458,12.928,21.066,-0.818,-6.384,23.661,25.808,-25.736,-0.427,21.228,1.983,-0.691,-24.435,-13.959,-10.299,-27.81,1.339,-24.721,-7.831,32.428,22.369,7.987,20.49,12.631,-25.953,-18.718,7.703,-18.985,18.2,-21.798,15.906,7.207,-21.388,26.212,-1.137,-17.446,32.358,-19.604,-22.896,-27.691,24.711,-28.377,-31.287,-29.862,-28.019,-8.317,-11.734,31.882,-29.099,-29.978,-10.423,28.713,-26.104,8.199,30.92,18.752,-8.564,-12.611,-18.246,-10.54,-23.44,23.629,-11.128,-21.64,3.025,25.173,-9.585,-20.737,-7.532,-8.272,-7.123,-29.903,14.405,-6.424,20.541,-21.535,-9.771,10.079,-15.773,-2.593,-10.627,-27.546,-7.145,-26.659,-11.218,-22.602,20.034,-11.09,8.092,-26.788,17.583,-29.034,8.09,-20.721,-0.221,29.745,26.724,21.35,9.455,-28.401,16.988,-31.891,1.889,-24.896,10.221,7.69,-23.94,-23.66,18.455,19.221,-2.452,19.858,32.074,-2.627,26.907,20.417,-9.071,5.43,13.466,-17.388,27.74,-14.692,-17.947,0.435,21.432,28.751,11.086,28.476,-32.183,-17.162,0.201,-19.267,-24.212,6.265,8.377,20.762,-6.045,-22.55,-5.117,-12.906,-2.554,-19.81,-13.039,-23.764,0.813,18.137,12.986,-12.785,17.551,5.659,-16.046,-22.067,5.482,11.397,-18.744,-9.746,12.183,-23.777,1.332,14.07,-7.548,10.407,-21.908,6.407,20.478,0.377,23.41,3.011,-13.105,14.451,-17.859,-0.147,-1.562,31.803,6.588,-26.571,-20.604,-4.517,26.43,26.686,1.206,-19.931,0.915,32.048,13.562,15.454,27.318,1.772,14.616,-9.225,-6.43,10.908,-3.78,26.92,29.305,1.703,-20.79,9.235,4.524,25.883,-1.869,-7.84,6.106,3.022,1.893,-19.607,32.46,27.728,14.201,-12.319,-13.833,-4.281,-20.284,29.334,17.768,-0.752,-23.99,-8.795,-31.57,-14.944,-17.981,-23.333,20.915,-23.524,-31.831,29.442,10.605,29.905,-13.701,20.652,-28.866,19.645,21.271,27.623,-19.903,-23.883,-25.62,5.112,-3.968,-29.407,-4.242,15.699,-9.173,29.351,28.455,-0.701,7.832,3.392,19.626,-6.232,25.856,13.734,-26.381,-22.144,-18.447,22.371,-26.242,-17.11,-25.02,-21.482,1.558,-24.926,3.496,-6.38,-28.905,15.705,21.164,7.737,-10.953,-25.954,-31.593,-24.516,-3.043,-32.262,0.579,11.033,31.55,14.442,14.401,-4.864,14.947,-29.663,27.91,-5.688,-2.259,-28.549,29.768,24.573,-29.042,28.321,1.867,21.064,21.1,-13.407,-3.932,27.969,15.566,14.754,0.21,-21.694,-29.463,2.141,29.277,-17.388,-7.797,-1.251,-6.791,-6.739,26.811,-9.978,-1.67,-9.741,27.068,20.972,25.695,23.201,30.166,11.772,-18.749,-26.08,29.543,-15.375,2.656,-17.673,-24.236,-30.671,-13.957,-3.223,18.319,21.224,25.361,5.936,-12.227,16.026,5.663,21.662,-6.711,-4.905,27.528,-11.127,10.62,-14.799,-27.715,-28.742,18.161,28.074,4.793,-3.897,-2.511,-19.906,-25.018,-28.532,6.535,1.773,-30.702,30.1,6.474,3.344,-18.019,-26.759,-29.058,17.904,-24.781,-28.697,-21.026,31.69,-11.529,-20.251,-17.829,-32.23,-22.215,13.951,-7.533,1.64,0.724,25.512,11.043,-12.268,27.856,13.127,17.873,0.008,0.861,29.342,11.01,-22.933,5.711,-13.833,-0.414,8.697,-8.495,4.15,-0.667,20.017,13.871,23.946,0.844,-8.229,17.122,14.506,