0.0019227,0.02394,0.14898,0.62317,1.9897,5.2184,11.794,23.748,43.619,74.341,119.07,180.96,262.91,367.34,495.93,649.46,827.68,1029.3,1251.9,1492.2,1746.2,2009.3,2276.6,2543.2,2804.5,3056.1,3294.3,3516,3718.7,3900.6,4060.6,4198,4312.8,4404.9,4475,4523.7,4552.1,4561.5,4553.2,4529.3,4491.9,4443.4,4386.6,4324.4,4259.9,4196,4135.6,4081,4034.3,3996.9,3969.5,3952.4,3945.1,3946.6,3955.7,3970.9,3990.5,4013.2,4037.5,4062.4,4087.2,4111.3,4134.4,4156.4,4177.3,4196.7,4214.6,4230.5,4243.8,4254,4260.3,4262.2,4259.2,4250.9,4237.5,4219.2,4196.9,4171.3,4143.9,4115.7,4088,4062,4038.4,4017.9,4000.7,3986.5,3975.1,3965.9,3958.3,3951.6,3945.4,3939.4,3933.8,3928.8,3924.8,3922.6,3922.7,3926,3932.8,3943.3,3957.5,3974.9,3995,4016.7,4039.2,4061.2,4082,4100.6,4116.7,4130.1,4140.8,4149.2,4155.9,4161.4,4166.3,4171,4175.9,4180.8,4185.4,4189.4,4192.1,4192.7,4190.8,4185.7,4177.4,4165.9,4151.5,4134.9,4117,4098.8,4081.2,4065,4051,4039.4,4030.2,4023.3,4018,4013.8,4009.7,4005.2,3999.8,3993.1,3985.1,3976.2,3967,3958.2,3950.8,3945.5,3943.2,3944.2,3948.9,3957.2,3968.6,3982.5,3998.3,4015,4032,4048.7,4064.8,4080.3,4095.3,4110.2,4125.6,4142.1,4160.2,4180.2,4202.1,4225.8,4250.7,4276.2,4301.2,4324.7,4345.7,4363.5,4377.2,4386.8,4392.1,4393.4,4391.4,4386.6,4379.9,4371.9,4363.2,4354,4344.5,4334.4,4323.6,4311.6,4298,4282.6,4265.4,4246.6,4227.1,4207.7,4189.8,4174.8,4164.3,4159.9,4162.9,4174.5,4195.5,4226.3,4267,4317.5,4377.2,4445.7,4522.3,4606.6,4698.1,4796.5,4901.5,5013,5130.6,5254,5382.1,5513.9,5647.4,5780.2,5909.4,6031.4,6142.2,6237.6,6313.4,6365.1,6388.8,6381.1,6338.8,6259.9,6142.8,5986.9,5792.3,5560.1,5292.1,4990.8,4659.6,4302.6,3924.4,3530.4,3126.6,2719.5,2316.1,1923.5,1549,1199.8,882.74,604.06,369.11,182.21,46.374,-36.738,-66.93,-45.431,25.19,141.19,297.86,489.79,711.1,955.75,1217.7,1491.3,1771,2052,2329.8,2600.6,2861,3108,3339.1,3552.1,3745.3,3917.3,4067.2,4194.6,4299.4,4382.6,4445.2,4489.2,4516.8,4530.7,4534,4529.7,4520.7,4509.9,4499.4,4491.2,4486.6,4486.2,4490.4,4498.8,4511.1,4526.4,4544.1,4563.5,4584.1,4605.5,4627.5,4650.3,4673.7,4697.8,4722.6,4747.8,4772.9,4797.3,4820.1,4840.4,4857.2,4869.6,4877.1,4879.2,4876,4867.9,4855.5,4839.9,4822.3,4804,4786.2,4769.9,4755.8,4744.6,4736.2,4730.6,4727.4,4726,4726,4726.8,4728.3,4730.2,4732.9,4736.7,4742.2,4749.9,4760.4,4774.2,4791.5,4812,4835.4,4860.9,4887.6,4914.3,4939.8,4963.2,4983.6,5000.4,5013.4,5022.9,5029.2,5033.1,5035.5,5037.1,5038.9,5041.3,5044.6,5049,5054.2,5059.8,5065.4,5070.2,5074.1,5076.6,5077.8,5077.9,5077.5,5077.3,5078.2,5080.8,5086.1,5094.6,5106.4,5121.6,5139.7,5160,5181.6,5203.6,5224.9,5244.6,5262,5276.8,5288.8,5298.4,5305.9,5311.9,5317.1,5322.2,5327.6,5333.6,5340.1,5347,5353.9,5360.2,5365.5,5369.3,5371.3,5371.6,5370.4,5368.4,5366.2,5365,5365.6,5369,5375.9,5386.9,5402,5421,5443.2,5467.9,5494,5520.3,5545.9,5569.9,5591.5,5610.5,5626.8,5640.6,5652.3,5662.5,5671.6,5680,5688,5695.5,5702.3,5708,5712,5713.5,5712.1,5707.2,5698.6,5686.4,5670.8,5652.4,5632,5610.5,5588.6,5567.2,5546.7,5527.4,5509,5491.3,5473.5,5454.9,5434.4,5411.3,5384.9,5354.6,5320.4,5282.3,5240.7,5196.1,5149.2,5100.8,5051.3,5001.1,4950.5,4899.3,4847.1,4793.6,4738.2,4680.3,4619.5,4555.7,4489,4419.7,4348.7,4276.8,4205.1,4134.9,4067,4002.4,3941.7,3885.1,3832.5,3783.6,3737.8,3694.5,3653,3612.6,3573,3534.1,3495.9,3458.8,3423.3,3390,3359.5,3332.3,3308.6,3288.5,3271.8,3258,3246.2,3235.8,3225.9,3215.6,3204.6,3192.3,3178.9,3164.6,3150,3135.9,3122.9,3112,3103.7,3098.3,3096,3096.6,3099.6,3104.2,3109.8,3115.5,3120.7,3124.9,3127.9,3129.9,3131.2,3132.4,3134.2,3137.4,3142.6,3150.3,3160.7,3173.6,3188.6,3205,3221.8,3238.3,3253.5,3266.7,3277.4,3285.5,3291.3,3295.2,3297.9,3300.5,3303.8,3308.6,3315.7,3325.5,3338,3353.1,3370.3,3388.9,3408.4,3427.9,3447.1,3465.4,3482.9,3499.8,3516.4,3533.2,3551,3570.2,3591.2,3614.3,3639.2,3665.6,3692.8,3719.9,3746,3770.2,3791.5,3809.5,3823.8,3834.6,3842.1,3847.1,3850.4,3852.9,3855.5,3858.8,3863.4,3869.3,3876.6,3884.8,3893.4,3901.7,3909.1,3915.1,3919.3,3921.8,3922.7,3922.6,3922.2,3922.2,3923.5,3926.8,3932.5,3940.8,3951.5,3964.3,3978.4,3993,4007.1,4019.8,4030.5,4038.7,4044.3,4047.5,4048.7,4048.5,4047.8,4047.4,4047.9,4049.9,4053.6,4059,4065.8,4073.5,4081.7,4089.6,4096.7,4102.8,4107.6,4111.3,4114.3,4117.1,4120.3,4124.6,4130.6,4138.5,4148.7,4160.7,4174.2,4188.5,4202.7,4215.8,4227,4235.5,4240.8,4242.9,4241.8,4237.9,4232,4224.9,4217.2,4209.9,4203.4,4198.2,4194.1,4191.1,4188.7,4186.4,4183.7,4180,4175,4168.8,4161.5,4153.6,4145.9,4139.3,4134.8,4133.2,4135.3,4141.5,4151.8,4166.1,4183.8,4204,4225.8,4248.2,4270.3,4291.2,4310.6,4328.2,4344.3,4359.1,4373.3,4387.6,4402.6,4418.7,4436.4,4455.5,4475.9,4496.9,4518,4538.2,4556.9,4573.3,4587.1,4597.9,4605.9,4611.4,4615,4617.4,4619.2,4621.1,4623.6,4626.9,4630.9,4635.5,4640.1,4644.2,4647.1,4648.3,4647.4,4644.2,4638.8,4631.7,4623.6,4615.1,4607.2,4600.6,4596,4593.8,4594.1,4596.5,4600.6,4605.6,4610.5,4614.5,4616.7,4616.6,4613.9,4608.5,4600.9,4591.8,4582,4572.4,4563.9,4557.5,4553.6,4552.6,4554.3,4558.5,4564.5,4571.8,4579.6,4587.1,4594.1,4600,4605,4609.2,4613,4616.9,4621.2,4626.5,4632.7,4640,4647.8,4655.7,4662.9,4668.4,4671.5,4671.4,4667.7,4660.1,4648.7,4634.1,4616.9,4598.1,4578.9,4560.1,4542.7,4527.3,4514.3,4503.7,4495.2,4488.3,4482.3,4476.5,4470.3,4463.1,4454.8,4445.3,4435,4424.4,4414.1,4404.9,4397.6,4392.6,4390.4,4390.8,4393.9,4399,4405.6,4413,4420.4,4427.2,4433,4437.4,4440.6,4442.8,4444.3,4445.6,4447.3,4449.7,4453.1,4457.4,4462.4,4467.5,4472.3,4475.9,4477.6,4476.9,4473.3,4467,4458,4447.1,4435,4422.9,4411.9,4403.1,4397.4,4395.4,4397.6,4403.7,4413.5,4426.3,4441.2,4457.3,4473.8,4489.8,4505,4519,4532.1,4544.4,4556.6,4569.1,4582.6,4597.3,4613.6,4631.3,4650,4669.2,4688.1,4705.9,4721.9,4735.3,4745.9,4753.6,4758.6,4761.3,4762.6,4763.2,4764.1,4766.1,4769.7,4775.2,4782.7,4792,4802.5,4813.6,4824.7,4835,4844.1,4851.7,4857.8,4862.6,4866.7,4870.5,4874.9,4880.5,4887.6,4896.5,4907.1,4918.9,4931.4,4943.6,4954.5,4963.2,4968.9,4971,4969.2,4963.7,4954.7,4943,4929.6,4915.3,4901.1,4887.8,4876,4866,4857.6,4850.8,4844.9,4839.3,4833.5,4826.9,4819.1,4810.2,4800.1,4789.5,4778.8,4768.8,4760.1,4753.3,4748.8,4746.6,4746.6,4748.2,4750.8,4753.5,4755.4,4755.7,4753.8,4749.3,4742.2,4732.8,4721.6,4709.5,4697.3,4685.9,4675.9,4668,4662.3,4658.7,4656.9,4656.4,4656.4,4656.3,4655.3,4653.1,4649.5,4644.4,4638.4,4631.9,4625.6,4620.4,4617,4615.8,4617.2,4621.1,4627.3,4635.2,4644.2,4653.4,4662.1,4669.7,4675.8,4680.4,4683.6,4686,4688.3,4691.2,4695.7,4702.3,4711.6,4723.8,4738.7,4755.9,4774.8,4794.5,4814.1,4832.9,4850.2,4865.4,4878.5,4889.7,4899.3,4907.9,4916.1,4924.7,4934.1,4944.5,4956.1,4968.4,4981.2,4993.5,5004.6,5013.7,5020.1,5023.4,5023.5,5020.4,5014.8,5007.2,4998.6,4989.9,4982,4975.6,4971,4968.5,4967.7,4968.2,4969.2,4970.1,4969.9,4968.1,4964.2,4958.2,4950.2,4940.7,4930.6,4920.7,4912,4905.4,4901.5,4900.8,4903.5,4909.2,4917.5,4927.8,4939.4,4951.4,4963.2,4974.5,4985.1,4995,5004.6,5014.2,5024.4,5035.6,5048.1,5061.9,5076.8,5092.3,5107.5,5121.5,5133.3,5141.9,5146.3,5146.1,5140.8,5130.7,5116.2,5097.8,5076.5,5053.3,5029,5004.4,4980.1,4956.3,4932.9,4909.6,4886.1,4861.7,4835.9,4808.4,4779.1,4748,4715.6,4682.6,4650,4618.8,4590,4564.5,4543.2,4526.3,4514,4506,4501.9,4501,4502.4,4505.5,4509.5,4514.1,4519.2,4524.7,4531,4538.7,4548.1,4559.9,4574.5,4591.8,4611.9,4634.2,4658,4682.6,4706.7,4729.5,4750.1,4767.8,4782.3,4793.6,4801.9,4807.8,4812.1,4815.5,4818.8,4822.6,4827.4,4833.1,4839.8,4846.8,4853.7,4859.7,4864.2,4866.6,4866.6,4864.3,4859.9,4853.9,4847.2,4840.8,4835.7,4833,4833.5,4838,4846.9,4860.6,4879.2,4902.8,4931.2,4964.7,5003.3,5047.7,5098.3,5156,5221.7,5296.3,5380.7,5475.2,5580.3,5695.4,5819.9,5952.3,6090.6,6232.3,6374.5,6514.1,6647.7,6771.8,6883.1,6978.3,7054.4,7108.4,7137.6,7139.7,7112.2,7053.1,6960.6,6833.2,6669.7,6469.6,6233.1,5961,5655.4,5319.4,4956.9,4573.3,4174.6,3768,3360.8,2961,2576.3,2214.2,1881.5,1584.1,1327,1113.8,946.94,827.67,756.06,731.17,751.17,813.54,915.15,1052.4,1221.4,1417.9,1637.4,1875.3,2126.7,2386.8,2650.5,2912.9,3169.5,3415.7,3647.6,3862,4056.4,4228.9,4378.7,4505.8,4611.1,4696,4762.5,4813.2,4850.4,4876.9,4894.9,4906.7,4914,4918.3,4920.6,4921.7,4922.3,4922.8,4923.8,4925.8,4929.2,4934.9,4943.4,4955.4,4971.3,4991.4,5015.8,5044.1,5075.7,5109.7,5145,5180.4,5214.5,5246.4,5275.1,5300.2,5321.3,5338.8,5353.2,5365.1,5375.6,5385.6,5396,5407.3,5420,5434.1,5449.6,5465.9,5482.6,5499,5514.7,5529.2,5542.4,5554.4,5565.5,5576.4,5587.6,5599.8,5613.7,5629.6,5647.7,5667.8,5689.5,5712.2,5735,5757.1,5777.4,5795.5,5810.7,5823.1,5832.6,5839.9,5845.5,5850.4,5855.3,5861,5868,5876.4,5886.3,5897.3,5908.6,5919.5,5929,5936.3,5940.8,5942,5939.9,5934.6,5926.8,5917,5906.2,5895.3,5884.9,5875.5,5867.5,5860.8,5855.2,5850.2,5845.1,5839.3,5832.3,5823.6,5813.2,5801.2,5788,5774.2,5760.6,5748,5737.1,5728.4,5722.4,5718.9,5717.6,5718.1,5719.6,5721.2,5722.2,5721.9,5719.8,5715.7,5709.8,5702.5,5694.5,5686.4,5679,5672.9,5668.6,5666.4,5666.1,5667.2,5669.4,5671.7,5673.5,5674,5672.7,5669.5,5664.2,5657.3,5649.4,5641.2,5633.6,5627.4,5623.5,5622.2,5623.8,5628.2,5634.9,5643.5,5653.1,5662.8,5671.8,5679.7,5685.9,5690.3,5693.2,5694.8,5695.7,5696.4,5697.6,5699.5,5702.4,5706.2,5710.5,5714.8,5718.3,5720.2,5719.8,5716.3,5709.4,5699,5685.1,5668.3,5649.2,5628.5,5607,5585.4,5564.2,5543.5,5523.2,5503.1,5482.3,5460.2,5436,5408.9,5378.3,5343.8,5305.6,5263.8,5219,5172,5123.8,5075.1,5026.9,4979.7,4933.8,4889.4,4846.2,4803.8,4761.7,4719.2,4676,4631.7,4586.1,4539.4,4492.2,4444.9,4398.5,4353.7,4311.3,4271.9,4235.9,4203.2,4173.7,4146.9,4122.1,4098.6,4075.5,4052.3,4028.5,4004,3978.9,3953.5,3928.6,3904.7,3882.5,3862.8,3845.8,3831.7,3820.5,3811.5,3804.3,3798.1,3792,3785.3,3777.5,3768.3,3757.7,3746.2,3734.1,3722.5,3712.1,3703.8,3698.5,3696.4,3698,3703.2,3711.5,3722.4,3735.2,3749,3763.3,3777.4,3791.1,3804.1,3816.9,3829.7,3843,3857.3,3873.2,3891,3910.6,3932,3954.5,3977.4,4000,4021.3,4040.4,4056.8,4069.9,4079.8,4086.7,4091.3,4094.3,4096.7,4099.6,4103.9,4110.3,4119.1,4130.7,4144.6,4160.4,4177.5,4195,4212.1,4228.2,4242.8,4255.7,4266.8,4276.4,4285,4293.1,4301.1,4309.4,4318.2,4327.5,4336.9,4345.9,4353.8,4359.9,4363.3,4363.5,4360.2,4353.2,4342.9,4329.7,4314.6,4298.6,4282.5,4267.4,4254.1,4243,4234.5,4228.4,4224.3,4221.7,4220,4218.5,4216.6,4214,4210.6,4206.6,4202.5,4198.9,4196.5,4196,4198,4203,4211.1,4222.1,4235.5,4250.6,4266.7,4282.8,4298.1,4312.2,4324.5,4335,4344.1,4352.2,4360,4368.3,4377.7,4388.7,4401.7,4416.7,4433.4,4451.2,4469.3,4486.9,4503,4517,4528.3,4536.6,4542,4545.1,4546.4,4546.8,4547.2,4548.6,4551.5,4556.5,4563.8,4573.2,4584.3,4596.4,4608.9,4620.9,4631.8,4641.3,4649,4655.2,4660.2,4664.6,4669.1,4674.3,4681,4689.5,4700,4712.6,4726.8,4742,4757.6,4772.9,4787.2,4800,4811.1,4820.4,4828.3,4835.3,4842.2,4849.7,4858.5,4869.3,4882.2,4897.5,4914.8,4933.6,4953.1,4972.5,4990.8,5007.3,5021.4,5032.7,5041.2,5047.2,5051,5053.5,5055.2,5056.8,5058.8,5061.6,5065,5068.9,5072.7,5075.7,5077.3,5076.8,5073.7,5067.6,5058.6,5047.1,5033.7,5019,5004.2,4990.1,4977.4,4966.9,4958.7,4952.7,4948.8,4946.1,4944,4941.5,4938,4932.6,4925,4915.1,4903,4889.1,4874.2,4858.9,4843.9,4830,4817.6,4806.9,4798.1,4790.7,4784.6,4779,4773.5,4767.7,4761.4,4754.5,4747.2,4740,4733.6,4728.7,4726.1,4726.3,4729.9,4736.8,4747,4760,4774.8,4790.7,4806.3,4820.8,4833.2,4842.9,4849.5,4853,4853.8,4852.4,4849.6,4846.3,4843.1,4840.8,4839.8,4840.1,4841.6,4843.9,4846.5,4848.7,4850,4849.9,4848,4844.5,4839.6,4833.7,4827.6,4821.8,4817.2,4814.3,4813.3,4814.5,4817.5,4821.9,4827,4832,4836,4838.4,4838.7,4836.6,4832.2,4825.8,4818.2,4809.9,4802,4795,4789.5,4786,4784.4,4784.4,4785.6,4787.2,4788.4,4788.6,4786.9,4783.2,4777.3,4769.3,4759.8,4749.5,4739.2,4729.9,4722.4,4717.1,4714.6,4714.8,4717.5,4722.3,4728.4,4735,4741.5,4747.3,4751.9,4755.2,4757.3,4758.7,4759.9,4761.6,4764.4,4768.8,4775.1,4783.5,4793.6,4805,4817,4828.8,4839.5,4848.5,4855.1,4859.2,4860.9,4860.3,4858.2,4855.2,4852.1,4849.7,4848.6,4849.1,4851.3,4854.9,4859.7,4864.8,4869.6,4873.4,4875.5,4875.7,4873.9,4870.2,4865.2,4859.5,4854,4849.4,4846.5,4845.9,4847.9,4852.4,4859.2,4867.7,4877.4,4887.2,4896.7,4905.1,4912.1,4917.5,4921.5,4924.4,4926.8,4929.1,4932.1,4936,4941.3,4947.8,4955.2,4963.1,4970.7,4977.2,4981.9,4984.2,4983.7,4980.3,4974.1,4965.7,4955.7,4945.1,4934.7,4925.3,4917.7,4912.2,4908.9,4907.6,4907.8,4909,4910.2,4911,4910.5,4908.5,4904.9,4899.8,4893.6,4887,4880.9,4876,4872.9,4872.2,4874.2,4878.7,4885.4,4893.8,4903,4912.3,4920.9,4928.2,4933.8,4937.6,4939.9,4941,4941.6,4942.3,4943.8,4946.7,4951.2,4957.4,4965.1,4973.9,4982.9,4991.6,4999.2,5005.1,5008.9,5010.5,5010.1,5008.2,5005.6,5003.2,5001.7,5002.1,5004.8,5010.2,5018.1,5028.1,5039.6,5051.5,5063,5072.9,5080.4,5084.8,5085.9,5083.7,5078.6,5071.2,5062.3,5052.8,5043.5,5035,5027.9,5022.4,5018.2,5015.2,5012.7,5010.3,5007.3,5003.5,4998.7,4992.9,4986.5,4980,4974.4,4970.3,4968.5,4969.8,4974.6,4982.9,4994.6,5009.3,5026.2,5044.5,5063.4,5081.9,5099.4,5115.5,5130.1,5143.2,5155.3,5166.6,5177.8,5189.4,5201.5,5214.2,5227.4,5240.4,5252.7,5263.2,5271.2,5275.6,5275.9,5271.6,5262.5,5249,5231.5,5210.9,5188.1,5164,5139.7,5115.7,5092.7,5070.8,5049.9,5029.7,5009.6,4989.1,4967.6,4944.8,4920.4,4894.6,4867.8,4840.4,4813.2,4787.1,4762.7,4740.7,4721.4,4705,4691.3,4679.8,4670,4661,4652.3,4643.1,4633.2,4622.4,4610.9,4599.2,4588,4578.1,4570.4,4565.6,4564.3,4566.8,4573.2,4583,4595.7,4610.4,4626.2,4642.1,4657.5,4671.5,4684,4694.9,4704.4,4713,4721.3,4729.8,4739.1,4749.7,4761.7,4775,4789.2,4803.8,4818.1,4831.4,4843.1,4852.6,4859.8,4864.6,4867.5,4869,4869.7,4870.7,4872.7,4876.3,4882.2,4890.5,4901.3,4914.5,4929.7,4946.7,4965,4984.6,5005.7,5028.6,5054.2,5083.5,5117.7,5158.3,5206.5,5263.4,5329.9,5406.4,5492.9,5588.8,5693.1,5804.4,5920.9,6040.8,6161.9,6282.1,6399.4,6511.8,6617.3,6713.9,6799.7,6872.6,6930.4,6970.4,6990.3,6987.1,6958.1,6900.7,6812.4,6691.4,6536.3,6346.6,6123,5866.8,5580.7,5268.4,4934.3,4583.7,4222.6,3857.2,3493.8,3138.7,2797.7,2476.6,2180.2,1912.8,1678.2,1479.3,1318.4,1197.1,1116.3,1076.4,1076.8,1116.5,1193.4,1305.2,1448.3,1618.7,1812,2023,2246.5,2477,2709.5,2939,3161.2,3372.4,3569.8,3751.5,3916.2,4063.6,4193.9,4307.8,4406.4,4491,4562.9,4623.3,4673.5,4714.6,4747.4,4773,4792.2,4806.1,4815.7,4822.3,4827.2,4831.8,4837.4,4845.3,4856.5,4871.7,4891.2,4914.9,4942.4,4972.7,5004.6,5037,5068.3,5097.6,5123.7,5146.1,5164.4,5178.9,5189.9,5198.2,5204.5,5209.9,5215.1,5220.6,5226.9,5234.2,5242.3,5250.9,5259.8,5268.6,5277,5285,5292.9,5301,5309.9,5320.4,5333.3,5349.3,5368.9,5392.4,5419.7,5450.3,5483.5,5518.3,5553.4,5587.6,5619.7,5648.8,5674.2,5695.6,5713,5726.8,5737.6,5746.1,5753.2,5759.6,5765.8,5772.1,5778.7,5785.3,5791.5,5796.8,5800.6,5802.6,5802.5,5800.1,5795.8,5790,5783.5,5776.9,5771.2,5767.1,5765.1,5765.5,5768.2,5773,5779.1,5785.8,5792.3,5797.5,5801,5802,5800.5,5796.5,5790.4,5782.9,5774.6,5766.4,5759,5753.2,5749.1,5747,5746.7,5747.9,5750,5752.4,5754.7,5756.3,5757.1,5757.1,5756.5,5755.8,5755.5,5756.2,5758.6,5763.1,5769.7,5778.6,5789.3,5801.2,5813.5,5825.4,5836.1,5844.8,5851,5854.6,5855.6,5854.4,5851.8,5848.4,5845.2,5842.9,5842.1,5843.2,5846.3,5851.1,5857.2,5863.9,5870.4,5875.8,5879.6,5881.2,5880.4,5877.1,5871.6,5864.4,5856,5847,5838,5829.2,5820.8,5812.6,5804.2,5795.1,5784.6,5772,5756.9,5738.9,5717.8,5694,5667.9,5640.3,5612,5584,5557,5531.9,5508.8,5488,5469.1,5451.6,5434.6,5417.1,5398.4,5377.4,5353.4,5326.2,5295.5,5261.5,5224.7,5185.6,5144.9,5103.2,5061,5018.7,4976.3,4933.7,4890.4,4846.1,4800,4751.7,4701,4647.6,4591.9,4534.3,4475.6,4416.8,4359,4303.2,4250.4,4201.3,4156.2,4115.4,4078.5,4045,4014.2,3985.4,3957.9,3930.8,3903.9,3876.9,3850,3823.4,3797.6,3773.4,3751.1,3731.4,3714.5,3700.4,3689,3679.8,3672.3,3665.8,3659.7,3653.5,3646.8,3639.5,3632.1,3624.7,3618.2,3613.3,3610.7,3611,3614.7,3621.7,3631.8,3644.6,3659.2,3674.7,3689.9,3703.9,3715.9,3725.2,3731.7,3735.5,3737,3737,3736.2,3735.8,3736.5,3739.1,3743.9,3751.3,3761,3772.7,3785.6,3799.2,3812.7,3825.6,3837.4,3848.1,3857.7,3866.6,3875.2,3884.2,3894.1,3905.3,3917.9,3931.8,3946.7,3961.8,3976.4,3989.4,4000,4007.5,4011.2,4011,4007,3999.7,3989.8,3978.5,3966.7,3955.5,3945.7,3938,3932.8,3930.1,3929.5,3930.6,3932.7,3935,3937.1,3938.2,3938.3,3937.2,3935.1,3932.4,3929.6,3927.2,3925.5,3924.7,3924.9,3925.8,3926.9,3927.6,3927.2,3925,3920.3,3912.9,3902.7,3890,3875.4,3859.8,3844.3,3830.1,3818.2,3809.8,3805.5,3805.6,3810.2,3819,3831.4,3846.5,3863.6,3881.8,3900.3,3918.8,3937,3955,3972.8,3991,4010,4030,4051.4,4074.1,4097.9,4122.2,4146.4,4169.7,4191.2,4210.2,4226,4238.4,4247.4,4253.4,4257.1,4259.3,4261.1,4263.6,4267.5,4273.7,4282.4,4293.9,4307.7,4323.3,4340.1,4357.2,4373.9,4389.5,4403.7,4416.4,4427.7,4438.2,4448.5,4459.3,4471.3,4485.1,4501.1,4519.3,4539.6,4561.3,4583.9,4606.4,4628,4647.9,4665.4,4680.3,4692.5,4702.3,4710.2,4716.7,4722.6,4728.7,4735.3,4742.9,4751.5,4760.8,4770.5,4779.9,4788.3,4795.2,4800.1,4802.7,4803,4801.3,4798.3,4794.7,4791.5,4789.5,4789.6,4792.2,4797.7,4806,4816.7,4829.1,4842.4,4855.6,4867.8,4878.1,4886.1,4891.4,4894,4894.3,4892.6,4889.7,4886.1,4882.4,4878.8,4875.7,4872.7,4869.8,4866.3,4861.8,4855.7,4847.5,4837.2,4824.7,4810.5,4795,4779,4763.6,4749.5,4737.6,4728.4,4722.2,4719.1,4718.5,4720,4722.5,4725.3,4727.2,4727.6,4725.9,4721.9,4715.5,4707.1,4697.4,4687.1,4676.9,4667.6,4659.7,4653.5,4649,4645.8,4643.5,4641.3,4638.3,4634,4627.7,4618.9,4607.8,4594.4,4579.2,4562.9,4546.3,4530,4514.7,4500.8,4488.5,4477.5,4467.6,4458,4448.1,4437.1,4424.5,4409.8,4392.8,4373.9,4353.3,4331.9,4310.5,4290,4271.1,4254.7,4241,4230.1,4221.9,4215.9,4211.4,4207.6,4203.8,4199.2,4193.5,4186.5,4178.2,4168.9,4159.4,4150.2,4142.1,4135.7,4131.3,4129.4,4129.6,4131.9,4135.5,4139.8,4144.2,4148,4150.7,4152.2,4152.6,4152.1,4151.5,4151.5,4152.9,4156.5,4162.9,4172.6,4185.5,4201.4,4219.7,4239.6,4260.3,4280.8,4300.3,4318.2,4334,4347.8,4359.7,4370.3,4380.2,4390,4400.5,4412.2,4425.3,4439.9,4455.6,4472.1,4488.6,4504.4,4518.7,4531,4541,4548.6,4554,4557.8,4560.6,4563.4,4567,4572.1,4579.1,4588.5,4599.9,4613.2,4627.5,4642.1,4656,4668.5,4678.8,4686.4,4691.3,4693.6,4693.8,4692.4,4690.3,4688.1,4686.4,4685.7,4686.1,4687.4,4689.1,4690.7,4691.3,4690.2,4686.6,4680,4670.4,4657.6,4642.3,4624.9,4606.5,4587.8,4569.9,4553.4,4538.9,4526.7,4516.6,4508.4,4501.4,4495.1,4488.9,4482,4474.1,4465.1,4455,4444.1,4433,4422.2,4412.3,4403.8,4396.9,4391.8,4388.1,4385.5,4383.1,4380.3,4376.2,4370.3,4361.9,4350.9,4337.5,4322,4305.2,4288,4271.4,4256.2,4243.4,4233.4,4226.6,4222.9,4221.9,4222.9,4225.4,4228.3,4231.1,4233.2,4234.3,4234.3,4233.5,4232.4,4231.7,4232.1,4234.1,4238.2,4244.7,4253.4,4264,4275.8,4288.1,4300.1,4310.8,4319.7,4326.3,4330.5,4332.7,4333.1,4332.7,4332.3,4332.9,4335.1,4339.7,4347,4357.2,4369.9,4384.7,4400.8,4417.7,4434.4,4450.6,4465.6,4479.5,4492.4,4504.7,4517,4529.9,4544.3,4560.5,4579.1,4600.1,4623.4,4648.6,4675.1,4702.2,4729.2,4755.3,4780,4803.1,4824.5,4844.4,4863.2,4881.5,4899.6,4918.1,4937.1,4956.6,4976.2,4995.3,5013,5028.4,5040.3,5047.9,5050.4,5047.2,5038.4,5024.1,5005.1,4982,4956.1,4928.4,4899.8,4871.2,4843.2,4815.9,4789.3,4763,4736.4,4708.9,4680,4649.2,4616.3,4581.3,4544.5,4506.7,4468.5,4430.9,4394.6,4360.4,4328.8,4300,4273.9,4250.2,4228.3,4207.7,4187.7,4167.7,4147.3,4126.5,4105.3,4084.4,4064.2,4045.7,4029.7,4016.9,4007.9,4003.1,4002.3,4005.4,4011.6,4020.3,4030.6,4041.5,4052.4,4062.8,4072.4,4081.3,4089.8,4098.5,4108.1,4119.1,4132.3,4148.1,4166.5,4187.5,4210.6,4235.1,4260.3,4285.2,4309,4331.2,4351.4,4369.4,4385.5,4400.2,4414.1,4428.2,4443.2,4460,4479,4500.7,4525.3,4552.7,4582.7,4615.1,4649.7,4686.3,4725.1,4766.4,4810.8,4859,4912.2,4971.2,5037.1,5110.5,5192.1,5281.6,5378.9,5482.9,5592.4,5705.6,5820.6,5935.2,6047.3,6154.6,6255.2,6346.9,6428.2,6497.1,6552,6591.2,6612.9,6615.2,6596,6553.4,6485.1,6389.3,6264.3,6109,5922.6,5705.5,5458.7,5184.2,4885.1,4565.4,4229.7,3883.3,3532,3181.7,2838.3,2507.5,2194.4,1903.9,1640,1406.1,1205.2,1039.2,909.85,817.92,763.83,747.35,767.7,823.49,912.7,1032.7,1180.1,1351.1,1541.4,1746,1960.1,2178.5,2396.3,2609,2812.6,3003.9,3180.3,3340.3,3483,3608.5,3717.4,3810.9,3890.3,3957.4,4013.8,4060.9,4100.1,4132.6,4159.3,4181,4198.4,4212.2,4223,4231.8,4239.3,4246.6,4254.7,4264.3,4276.3,4291,4308.9,4329.6,4352.6,4377.4,4402.8,4427.7,4451.2,4472.3,4490.3,4505,4516.2,4524.3,4530,4534.2,4537.7,4541.4,4546.3,4552.8,4561.2,4571.6,4583.7,4597.2,4611.5,4626,4640.4,4654.5,4668.3,4681.9,4695.9,4711,4727.9,4747.1,4769.4,4795,4823.9,4855.8,4890.1,4925.9,4962.2,4998,5032.2,5063.9,5092.7,5118.3,5140.8,5160.3,5177.6,5193.1,5207.6,5221.5,5235,5248.2,5260.9,5272.7,5282.7,5290.4,5295,5295.8,5292.5,5285.1,5273.7,5258.9,5241.5,5222.4,5202.6,5183,5164.5,5147.4,5132.2,5118.8,5106.9,5096.1,5086,5075.9,5065.6,5054.9,5043.7,5032.5,5021.6,5011.8,5003.8,4998.4,4996,4997,5001.5,5009.2,5019.5,5031.7,5044.7,5057.6,5069.4,5079.4,5087,5092.1,5094.8,5095.5,5094.7,5093.3,5091.8,5091.1,5091.4,5093.1,5096.1,5100,5104.5,5108.9,5112.6,5115.3,5116.6,5116.6,5115.4,5113.7,5112.1,5111.6,5112.8,5116.5,5123.2,5133.1,5145.9,5161.3,5178.3,5196.1,5213.4,5229.1,5242.4,5252.5,5259,5261.7,5261,5257.3,5251.2,5243.6,5235.1,5226.3,5217.6,5208.9,5200.3,5191.3,5181.4,5170.2,5157.2,5142.1,5124.7,5105.4,5084.5,5062.6,5040.5,5018.9,4998.6,4979.9,4963,4947.8,4933.6,4919.7,4904.9,4887.9,4867.7,4843,4812.9,4777,4735,4687.2,4634,4576.3,4515,4451.1,4385.5,4318.8,4251.8,4184.6,4117.3,4049.8,3981.9,3913.4,3844.4,3774.8,3705,3635.5,3567.1,3500.8,3437.3,3377.6,3322.3,3272,3226.8,3186.5,3150.5,3118.1,3088.3,3060.2,3032.8,3005.3,2977.3,2948.6,2919.2,2889.7,2860.8,2833.1,2807.6,2784.8,2765.3,2749.4,2737.1,2727.9,2721.5,2717.2,2714.4,2712.4,2711,2709.8,2709.1,2709.2,2710.7,2714.2,2720.5,2730.2,2743.8,2761.5,2783.1,2808.2,2836.1,2865.9,2896.6,2927.2,2956.8,2984.8,3010.8,3034.7,3056.8,3077.5,3097.3,3117,3136.9,3157.5,3178.8,3200.8,3223,3244.7,3265.1,3283.5,3299.2,3311.6,3320.4,3325.7,3327.7,3327.3,3325,3321.9,3318.7,3316.3,3315.1,3315.3,3316.9,3319.6,3322.7,3325.6,3327.5,3328,3326.5,3322.8,3317.1,3309.5,3300.6,3291,3281.4,3272.1,3263.6,3256,3249,3242.1,3234.8,3226.1,3215.2,3201.3,3183.9,3162.5,3137.4,3108.7,3077.1,3043.7,3009.4,2975.4,2942.6,2912,2884.1,2859.3,2837.5,2818.6,2802.2,2787.8,2775.1,2763.6,2753.4,2744.5,2737.4,2732.5,2730.8,2732.8,2739.2,2750.4,2766.7,2788,2813.7,2843.2,2875.3,2909.1,2943.3,2976.9,3009.3,3039.8,3068.3,3095,3120.4,3145,3169.7,3195,3221.6,3249.8,3279.8,3311.2,3343.8,3376.8,3409.6,3441.6,3472.1,3501,3528,3553.3,3577.5,3601,3624.6,3648.9,3674.5,3701.5,3730.1,3759.9,3790.2,3820.2,3848.8,3875.2,3898.1,3917.1,3931.4,3941.1,3946.2,3947.4,3945.4,3941.1,3935.5,3929.2,3923.1,3917.5,3912.6,3908.2,3903.9,3899.4,3894,3887.5,3879.6,3870.3,3859.8,3848.8,3838,3828.3,3820.4,3815.2,3813.1,3814.6,3819.3,3827,3837,3848.3,3860.1,3871.2,3880.9,3888.7,3894.2,3897.3,3898.5,3898.3,3897.2,3896.1,3895.5,3895.9,3897.6,3900.4,3904.2,3908.6,3912.8,3916.4,3918.8,3919.7,3919.1,3917,3913.9,3910.6,3907.9,3906.5,3907.3,3911,3917.8,3927.8,3940.8,3956.1,3973,3990.5,4007.6,4023.4,4037.2,4048.5,4057.2,4063.4,4067.5,4070.1,4071.8,4073.3,4075.1,4077.4,4080.5,4084.1,4088,4091.6,4094.4,4096,4096.1,4094.5,4091.4,4087.2,4082.6,4078.4,4075.4,4074.4,4076.1,4080.9,4088.8,4099.6,4112.6,4127,4141.8,4155.7,4167.9,4177.3,4183.3,4185.7,4184.4,4179.8,4172.3,4162.7,4151.6,4139.6,4127.3,4114.7,4101.9,4088.6,4074.4,4058.6,4040.7,4020.4,3997.4,3971.6,3943.4,3913.4,3882.3,3850.9,3820.3,3791.2,3764.2,3739.7,3717.9,3698.3,3680.6,3664,3647.8,3631.4,3614,3595.3,3575.4,3554.4,3532.9,3511.6,3491.4,3473.1,3457.5,3445.2,3436.5,3431.4,3429.5,3430.3,3433,3436.8,3440.9,3444.6,3447.6,3449.8,3451.1,3452,3453,3454.7,3457.9,3462.8,3470,3479.3,3490.6,3503.4,3517.2,3531.1,3544.5,3556.8,3567.5,3576.5,3584.1,3590.4,3596.3,3602.4,3609.4,3618.1,3628.9,3642.1,3657.7,3675.1,3693.9,3713.1,3732,3749.5,3765,3778,3788.2,3795.8,3801,3804.5,3807.1,3809.5,3812.3,3816.1,3821.2,3827.5,3834.7,3842.5,3850.1,3857,3862.7,3866.6,3868.8,3869.4,3868.8,3867.5,3866.5,3866.5,3868.2,3872.2,3878.7,3887.8,3899,3911.6,3924.8,3937.5,3948.8,3957.6,3963.4,3965.7,3964.5,3960,3952.8,3943.5,3933.1,3922.3,3911.7,3901.9,3893,3885,3877.5,3870.1,3862.1,3853.1,3842.5,3830.1,3816,3800.5,3783.9,3767.1,3750.9,3735.9,3722.9,3712.2,3704,3698,3694,3691,3688.4,3685.2,3680.7,3674.3,3665.6,3654.6,3641.8,3627.7,3613.3,3599.4,3587.2,3577.4,3570.8,3567.7,3568.3,3572.3,3579.4,3588.9,3600.1,3612.4,3625.3,3638.3,3651.4,3664.7,3678.5,3693.1,3709,3726.5,3745.7,3766.5,3788.5,3811,3833.3,3854.2,3872.9,3888.2,3899.6,3906.5,3908.9,3906.9,3901.3,3892.6,3881.9,3870.1,3858.1,3846.4,3835.4,3825,3814.9,3804.4,3792.8,3779.2,3762.9,3743.1,3719.6,3692.3,3661.6,3628,3592.6,3556.2,3520.1,3485.1,3452.1,3421.8,3394.4,3370.1,3348.7,3330,3313.6,3299.4,3287.2,3277,3269.1,3263.9,3261.9,3263.6,3269.6,3280.2,3295.4,3314.9,3338.1,3364.1,3391.7,3419.6,3446.3,3470.5,3491.1,3507.3,3518.5,3524.7,3526.2,3523.6,3517.6,3509.2,3499.3,3488.5,3477.4,3466.3,3455.3,3444.1,3432.5,3420.1,3406.7,3392,3376.3,3359.9,3343.3,3327.6,3313.6,3302.4,3295,3292.2,3294.5,3302.2,3315.3,3333.5,3356.4,3383.4,3413.9,3447.6,3484.3,3524.1,3567.4,3614.9,3667.6,3726.2,3791.9,3865.4,3947.2,4037.4,4135.5,4240.6,4351.6,4466.5,4583.4,4700,4813.8,4922.7,5024.3,5116.3,5196.9,5263.9,5315.5,5349.7,5364.7,5358.4,5328.8,5273.9,5191.7,5080.4,4938.7,4765.7,4561.4,4326.6,4063,3773.3,3461.5,3132.2,2790.9,2443.7,2096.9,1757,1430.1,1122.2,838.49,583.49,360.95,173.77,24.044,-86.881,-158.38,-190.48,-183.79,-139.48,-59.26,54.617,199.37,371.67,567.69,783.13,1013.3,1253.3,1498.1,1742.7,1982.4,2212.9,2430.5,2632.4,2816.5,2981.4,3126.8,3252.8,3360.4,3450.7,3525.3,3586,3634.2,3671.5,3699.4,3718.8,3730.9,3736.6,3736.7,3732.1,3723.8,3712.9,3700.4,3687.8,3676,3666.3,3659.5,3656.3,3656.9,3661.3,3669,3679.3,3691.3,3703.7,3715.6,3726.1,3734.5,3740.4,3743.9,3745.1,3744.9,3743.8,3743,3743.2,3745.1,3749.3,3755.9,3765,3776.2,3789,3802.8,3817,3830.9,3844.3,3857.1,3869.2,3881,3892.9,3905.6,3919.5,3935.1,3952.4,3971.6,3992.2,4013.6,4035.1,4055.7,4074.5,4090.7,4103.7,4113,4118.7,4121,4120.5,4117.8,4113.9,4109.5,4105.4,4101.9,4099.3,4097.5,4096.1,4094.7,4092.4,4088.6,4082.7,4074.4,4063.5,4050.2,4034.9,4018.3,4001.3,3984.7,3969.4,3956.1,3945.1,3936.5,3930.1,3925.6,3922.1,3919.1,3915.7,3911.4,3905.9,3899,3891,3882.4,3873.8,3866.1,3860,3856.2,3855.1,3857.2,3862.1,3869.7,3879.4,3890.3,3901.7,3913,3923.4,3932.7,3940.9,3948.1,3954.9,3961.8,3969.5,3978.9,3990.3,4004.1,4020.3,4038.8,4058.8,4079.9,4101.1,4121.5,4140.7,4158,4173.3,4186.8,4198.8,4210.2,4221.7,4234.2,4248.6,4265.3,4284.9,4307.1,4331.8,4358.1,4385.3,4412.3,4438.2,4461.9,4483,4501,4515.9,4528,4537.8,4546.1,4553.5,4560.7,4568.3,4576.5,4585.4,4594.4,4603.2,4610.9,4616.7,4619.9,4619.7,4615.7,4607.7,4595.9,4580.6,4562.3,4541.8,4519.6,4496.2,4472.1,4447.2,4421.5,4394.3,4365.1,4333,4297.3,4257.1,4212.1,4161.8,4106.5,4046.3,3982,3914.4,3844.3,3772.7,3700.3,3627.9,3555.6,3483.8,3412.2,3340.7,3269,3196.7,3123.7,3050,2975.9,2901.8,2828.6,2757,2688,2622.4,2560.9,2503.9,2451.5,2403.5,2359.5,2318.5,2279.7,2242.2,2205.1,2167.7,2129.6,2090.6,2051,2011.3,1972.3,1934.7,1899.5,1867.3,1838.8,1814.1,1793.4,1776.2,1762.1,1750.4,1740.3,1731.3,1722.9,1714.7,1707,1699.8,1693.8,1689.5,1687.5,1688.5,1692.9,1700.9,1712.4,1727.1,1744.4,1763.6,1783.9,1804.6,1825.1,1844.9,1864.1,1882.8,1901.4,1920.7,1941.2,1963.8,1988.9,2016.9,2048,2081.7,2117.7,2155,2192.9,2230.3,2266.4,2300.5,2332.3,2361.5,2388.4,2413.4,2437.3,2460.8,2484.6,2509.3,2535.3,2562.6,2591,2620,2649,2677,2703.3,2727.1,2747.8,2765.2,2779.3,2790.4,2799.1,2806.3,2812.6,2818.8,2825.5,2833.1,2841.6,2850.8,2860.2,2869.1,2876.6,2882,2884.6,2883.8,2879.6,2872,2861.3,2848.1,2833.2,2817.2,2800.8,2784.6,2768.8,2753.4,2738.2,2722.8,2706.5,2688.8,2669.3,2647.5,2623.3,2597,2569.1,2540.2,2511.3,2483.3,2457.2,2433.6,2413.2,2396.1,2382.4,2371.6,2363.2,2356.6,2350.9,2345.5,2340.1,2334.4,2328.4,2322.5,2317.3,2313.4,2311.6,2312.5,2316.5,2323.8,2334.4,2347.9,2363.4,2380.3,2397.5,2414,2429.2,2442.4,2453.3,2462.1,2469.1,2474.8,2480,2485.4,2491.9,2499.8,2509.6,2521.1,2534.2,2548.2,2562.5,2576.4,2589.1,2600.1,2609.2,2616.1,2621.2,2624.9,2627.9,2630.9,2634.7,2639.8,2646.7,2655.3,2665.6,2676.9,2688.7,2700.2,2710.5,2719.1,2725.3,2729.2,2730.6,2730.2,2728.4,2726.2,2724.4,2723.8,2724.9,2728.2,2733.8,2741.4,2750.5,2760.5,2770.4,2779.6,2787.4,2793.4,2797.3,2799.2,2799.7,2799.2,2798.4,2798.1,2799,2801.4,2805.7,2811.6,2818.9,2826.9,2834.9,2842.1,2847.7,2851.2,2852.2,2850.5,2846.5,2840.5,2833.3,2825.5,2817.9,2811.1,2805.5,2801.3,2798.4,2796.3,2794.5,2792.3,2789,2784,2776.9,2767.7,2756.4,2743.5,2729.7,2716,2703,2691.8,2682.9,2676.8,2673.6,2673.2,2675.1,2678.7,2683.3,2688.3,2693.1,2697.3,2700.9,2703.9,2706.8,2710.2,2714.8,2721.3,2730.3,2742.1,2756.8,2774.3,2794.1,2815.3,2837.3,2858.9,2879.4,2897.9,2914,2927.5,2938.5,2947.4,2954.6,2960.9,2966.9,2973.1,2980,2987.5,2995.6,3003.7,3011.2,3017.3,3021.4,3022.6,3020.6,3015.1,3006.3,2994.5,2980.2,2964.4,2947.9,2931.3,2915.3,2900.3,2886.4,2873.4,2860.9,2848.3,2834.8,2819.8,2802.8,2783.4,2761.7,2737.8,2712.3,2686,2659.7,2634.3,2610.7,2589.3,2570.7,2555,2541.8,2530.9,2521.5,2513.2,2505.3,2497.3,2489,2480.4,2471.9,2463.8,2457,2452,2449.5,2450,2453.9,2461.1,2471.2,2483.7,2497.8,2512.5,2526.9,2540.2,2551.6,2560.9,2567.9,2572.8,2576.1,2578.4,2580.4,2582.9,2586.2,2590.8,2596.7,2603.8,2611.5,2619.3,2626.6,2632.6,2637.1,2639.6,2640.3,2639.5,2637.7,2635.9,2635,2635.7,2639,2645.3,2655.1,2668.2,2684.2,2702.5,2722.3,2742.5,2762.3,2780.9,2797.6,2812.1,2824.5,2834.9,2843.8,2851.9,2859.6,2867.5,2876,2885.2,2894.9,2904.7,2914.2,2922.6,2929.4,2934,2936.1,2935.6,2932.7,2927.8,2921.8,2915.4,2909.6,2905,2902.3,2901.8,2903.4,2906.8,2911.4,2916.2,2920.4,2922.9,2922.9,2919.8,2913.3,2903.2,2890,2874.1,2856.3,2837.3,2817.9,2798.5,2779.7,2761.5,2743.9,2726.4,2708.8,2690.6,2671.3,2650.8,2629,2606.2,2583,2560,2538.1,2518.2,2501.2,2487.6,2478,2472.3,2470.1,2471,2474,2478,2482.1,2485.3,2486.8,2486.2,2483.4,2478.4,2471.7,2463.9,2455.9,2448.2,2441.5,2436.2,2432.4,2429.9,2428.4,2427.5,2426.5,2425,2422.4,2418.7,2413.9,2408.5,2403,2398.2,2395.1,2394.5,2397.3,2403.9,2414.6,2429.3,2447.4,2468.4,2491.2,2514.8,2538.2,2560.5,2581.2,2599.9,2616.4,2631.1,2644.4,2656.8,2668.9,2681.2,2693.9,2707.4,2721.4,2735.6,2749.6,2762.9,2775,2785.5,2794.4,2801.7,2807.9,2813.8,2820.1,2827.8,2838,2851.5,2868.8,2890.1,2915.4,2944.1,2975.4,3008.3,3041.4,3073.7,3103.9,3131.2,3155,3175.1,3191.4,3204.4,3214.5,3222.3,3228.3,3233,3236.5,3238.8,3239.5,3238.1,3233.9,3226.3,3214.5,3198.2,3177,3151.1,3120.9,3087.1,3050.4,3012,2972.8,2933.5,2894.9,2857.3,2820.6,2784.8,2749.4,2713.8,2677.5,2640,2600.9,2560.4,2518.6,2476.1,2433.6,2392.1,2352.5,2315.7,2282.3,2252.8,2227.3,2205.7,2187.4,2172,2158.5,2146.3,2134.8,2123.5,2112.2,2101,2090.3,2080.6,2072.6,2066.8,2063.8,2063.9,2067.2,2073.4,2082.1,2092.4,2103.4,2114.2,2124,2132,2137.9,2141.5,2143.2,2143.3,2142.8,2142.4,2142.9,2145,2149.3,2156,2164.9,2175.7,2187.9,2200.7,2213.3,2225.2,2235.8,2245.1,2253.2,2260.5,2267.9,2276.1,2286.4,2299.8,2317.1,2339.4,2367,2400.3,2439.4,2484.3,2534.9,2591,2652.6,2719.9,2793.3,2873.3,2960.6,3055.9,3160,3273.3,3395.9,3527.3,3666.7,3812.6,3962.8,4114.6,4265.1,4410.7,4547.9,4673.1,4782.8,4873.7,4942.8,4987.5,5005.4,4994.6,4953.2,4879.9,4773.5,4633.2,4458.4,4249.1,4005.7,3729.4,3422.1,3086.7,2727,2347.5,1954.1,1552.9,1150.8,755.02,372.74,10.864,-324.2,-626.83,-892.36,-1117.2,-1298.8,-1435.9,-1528.1,-1576.1,-1581.3,-1545.8,-1472.3,-1363.8,-1223.7,-1055.8,-863.9,-652.2,-425.04,-186.89,57.64,303.94,547.47,783.91,1009.3,1220.1,1413.6,1587.7,1741.1,1873.5,1985.2,2077.4,2151.7,2210.2,2255.2,2289,2314,2332,2344.8,2353.7,2359.6,2363.3,2365.3,2366.1,2366,2365.6,2365.4,2366.1,2368.4,2373.1,2380.8,2392,2407,2425.7,2447.8,2472.6,2499.2,2526.6,2553.7,2579.4,2602.8,2623.4,2640.7,2655,2666.4,2675.7,2683.6,2691,2698.6,2707,2716.7,2727.8,2740.1,2753.1,2766.5,2779.3,2791.2,2801.6,2810.1,2816.8,2821.7,2825.5,2828.5,2831.5,2835,2839.5,2845.3,2852.3,2860.3,2868.9,2877.3,2885,2891.1,2895.2,2897,2896.2,2893.3,2888.8,2883.3,2877.7,2873.1,2870,2869.2,2871,2875.3,2881.9,2890.2,2899.3,2908.3,2916.3,2922.5,2926.4,2927.7,2926.5,2922.9,2917.7,2911.6,2905.2,2899.3,2894.5,2891.1,2889.1,2888.3,2888.4,2888.7,2888.7,2887.8,2885.6,2882,2877.1,2871.3,2865.1,2859.4,2854.9,2852.3,2852.4,2855.4,2861.4,2870.1,2881.1,2893.5,2906.6,2919.3,2931,2941.1,2949.2,2955.3,2959.7,2962.8,2965.3,2967.9,2971.1,2975.4,2980.9,2987.6,2995,3002.5,3009.3,3014.6,3017.7,3017.8,3014.7,3008.5,2999.3,2988.1,2975.6,2962.9,2951.2,2941.4,2934.3,2930.5,2930.1,2933,2938.7,2946.7,2956.1,2966.3,2976.6,2986.6,2996.1,3005.1,3013.8,3022.6,3031.8,3041.9,3053,3065.1,3077.8,3090.5,3102.5,3112.7,3119.9,3123.2,3121.6,3114.4,3101.3,3082.4,3058,3028.7,2995.3,2958.9,2920.1,2879.8,2838.5,2796.5,2753.6,2709.7,2664.3,2616.9,2566.9,2514.1,2458.2,2399.5,2338.4,2275.6,2212.2,2149.2,2087.7,2028.6,1972.8,1920.7,1872.4,1827.8,1786.2,1747.1,1709.5,1672.8,1636.1,1598.9,1561.2,1522.7,1483.9,1445.2,1407,1369.9,1334.3,1300.5,1268.5,1238,1208.5,1179.5,1150.3,1120.2,1088.7,1055.5,1020.7,984.64,947.88,911.36,876.12,843.25,813.77,788.52,768.03,752.53,741.92,735.77,733.42,734.09,736.96,741.29,746.5,752.25,758.42,765.16,772.78,781.69,792.32,805,819.88,836.89,855.69,875.72,896.2,916.25,934.99,951.63,965.6,976.59,984.64,990.09,993.57,995.93,998.11,1001,1005.5,1012,1020.8,1031.9,1044.9,1059.2,1074,1088.5,1102,1113.8,1123.6,1131.3,1137.2,1141.6,1145.2,1148.6,1152.4,1157.1,1162.8,1169.7,1177.4,1185.4,1192.9,1199.2,1203.5,1205.2,1204,1199.8,1192.6,1183.1,1171.8,1159.7,1147.6,1136.2,1126.1,1117.8,1111.3,1106.3,1102.5,1099.3,1096.2,1092.5,1087.8,1082.1,1075.3,1067.9,1060.5,1053.8,1048.5,1045.5,1045.2,1047.9,1053.5,1061.9,1072.2,1083.7,1095.2,1106,1115,1121.6,1125.5,1126.6,1125.2,1121.9,1117.4,1112.6,1108.3,1105.2,1103.7,1104.2,1106.5,1110.3,1115.2,1120.6,1125.9,1130.8,1134.9,1138.3,1141.2,1144.1,1147.8,1152.9,1160.3,1170.4,1183.8,1200.5,1220.2,1242.6,1266.8,1292,1317.2,1341.5,1364.2,1384.7,1402.9,1418.8,1432.8,1445.2,1456.7,1467.8,1479,1490.5,1502.2,1514,1525.2,1535.3,1543.5,1549.1,1551.6,1550.7,1546.5,1539.3,1529.8,1519,1507.9,1497.7,1489.5,1484,1481.9,1483.5,1488.5,1496.5,1506.9,1518.7,1531,1543.1,1554.2,1564,1572.2,1578.9,1584.6,1589.6,1594.5,1599.6,1605.3,1611.7,1618.5,1625.3,1631.7,1636.8,1640.1,1640.9,1638.9,1634,1626.4,1616.7,1605.8,1594.5,1583.9,1575.1,1569,1566,1566.4,1570.2,1577,1586.1,1596.5,1607.5,1618.1,1627.6,1635.6,1641.8,1646.2,1649.1,1651,1652.3,1653.6,1655,1656.9,1659,1661.1,1662.7,1663.3,1662.3,1659.1,1653.5,1645.4,1635.1,1623.1,1610.3,1597.5,1586,1576.6,1570.4,1567.8,1569.2,1574.6,1583.4,1595,1608.5,1622.9,1637.1,1650.3,1661.7,1671,1678.1,1683.1,1686.5,1688.7,1690.3,1691.7,1693.4,1695.5,1697.8,1700.2,1702,1702.8,1702,1699.2,1694.1,1686.7,1677.2,1666.2,1654.4,1642.7,1631.9,1622.9,1616.2,1612.1,1610.7,1611.6,1614.2,1617.8,1621.4,1624.3,1625.5,1624.7,1621.5,1616,1608.6,1599.9,1590.5,1581.2,1572.8,1565.7,1560.3,1556.4,1553.9,1552.1,1550.6,1548.5,1545.3,1540.5,1533.9,1525.6,1515.8,1505.3,1494.7,1484.8,1476.6,1470.4,1466.9,1465.9,1467.3,1470.6,1475,1479.7,1483.7,1486.4,1487.1,1485.7,1482,1476.6,1469.9,1462.9,1456.4,1451.1,1447.9,1447,1448.8,1452.9,1459,1466.3,1474.2,1481.9,1488.6,1493.8,1497.3,1499.1,1499.4,1498.9,1498,1497.4,1497.7,1499.2,1502.2,1506.5,1511.8,1517.6,1523.2,1528,1531.4,1533,1532.7,1530.7,1527.4,1523.4,1519.8,1517.3,1516.8,1519,1524.4,1533,1544.7,1558.8,1574.7,1591.4,1607.9,1623.5,1637.4,1649.2,1658.8,1666.5,1672.6,1677.6,1682.2,1687,1692.2,1698.1,1704.5,1710.9,1716.6,1720.9,1722.9,1721.7,1716.7,1707.5,1694.2,1677,1656.5,1633.6,1609.3,1584.8,1560.9,1538.4,1518,1499.8,1483.7,1469.6,1457,1445.2,1433.7,1422.2,1410.4,1398.2,1386.1,1374.3,1363.5,1354.4,1347.4,1343,1341.3,1342.2,1345.2,1349.7,1354.6,1359.1,1362,1362.5,1359.9,1353.9,1344.3,1331.5,1316.1,1298.8,1280.5,1262.1,1244.1,1227.3,1211.8,1197.7,1184.7,1172.6,1160.9,1149.1,1137,1124.6,1112,1099.6,1088,1078.2,1070.8,1066.8,1066.7,1071,1079.7,1092.6,1108.9,1127.9,1148.5,1169.5,1189.9,1208.8,1225.5,1239.7,1251.3,1260.7,1268.4,1275,1281,1287.2,1293.9,1301.2,1309,1317.1,1324.8,1331.6,1336.9,1340.3,1341.3,1340.1,1336.9,1332.3,1327.1,1322.2,1318.7,1317.3,1318.9,1323.7,1332.1,1343.8,1358.2,1374.8,1392.6,1410.9,1428.8,1445.8,1461.4,1475.7,1488.6,1500.6,1511.9,1523.1,1534.3,1545.9,1557.6,1569.2,1580.1,1589.6,1596.9,1601.1,1601.7,1598.3,1590.6,1579,1564,1546.3,1527,1507.3,1488.2,1470.7,1455.5,1443.1,1433.6,1426.7,1422,1418.9,1416.6,1414.5,1412,1408.9,1405,1400.4,1395.4,1390.6,1386.4,1383.1,1381,1380.2,1380.4,1381,1381.4,1380.8,1378.4,1373.4,1365.4,1354,1339.4,1322,1302.7,1282.4,1262.2,1243.3,1226.7,1213.4,1203.7,1198,1196,1197.4,1201.5,1207.7,1215.1,1223.2,1231.5,1239.8,1248.1,1256.8,1266.2,1276.7,1288.9,1302.9,1318.7,1336.3,1355,1374.2,1392.9,1410.1,1424.8,1436.3,1443.9,1447.4,1446.8,1442.5,1435.1,1425.3,1414,1401.9,1389.7,1377.8,1366.1,1354.5,1342.5,1329.5,1314.7,1297.5,1277.3,1253.9,1227.2,1197.7,1165.9,1132.8,1099.3,1066.5,1035.4,1006.7,981.01,958.48,939.06,922.44,908.16,895.67,884.46,874.18,864.65,855.96,848.44,842.6,839.13,838.71,841.97,849.38,861.14,877.14,896.98,919.95,945.09,971.35,997.6,1022.8,1046.2,1067.2,1085.4,1100.8,1113.8,1124.6,1133.7,1141.8,1149,1155.5,1161.5,1166.5,1170.1,1171.9,1171.2,1167.6,1160.8,1150.8,1138,1122.8,1106.3,1089.5,1073.5,1059.7,1048.9,1042.2,1040.1,1042.8,1050.6,1063,1079.9,1100.8,1125.5,1153.9,1186.1,1222.8,1264.5,1312.4,1367.5,1431,1503.9,1586.9,1680.6,1784.6,1898.6,2021.3,2151.3,2286.5,2424.8,2563.6,2700.4,2832.6,2957.4,3072.4,3174.8,3262.1,3331.6,3380.5,3405.9,3405,3374.7,3312.4,3215.4,3081.7,2909.8,2699,2449.8,2163.8,1843.6,1493.4,1118.3,724.41,318.58,-91.771,-499.06,-895.76,-1274.7,-1629.4,-1953.9,-2243.3,-2493.7,-2702,-2866.1,-2984.9,-3058,-3085.7,-3069.3,-3010.5,-2911.8,-2776.4,-2608,-2411,-2190.3,-1951.1,-1699,-1439.5,-1178.4,-920.87,-671.84,-435.5,-215.29,-13.765,167.42,327.5,466.53,585.25,684.92,767.17,833.84,886.77,927.77,958.5,980.44,994.92,1003.1,1006.2,1005.4,1001.7,996.44,990.95,986.58,984.61,986.24,992.45,1003.9,1021,1043.5,1071.1,1102.7,1137.4,1173.7,1210.2,1245.8,1279.2,1309.7,1336.9,1360.7,1381.4,1399.5,1415.8,1430.9,1445.6,1460.5,1475.7,1491.4,1507.4,1523.2,1538.3,1552.3,1564.7,1575.3,1584.1,1591.3,1597.3,1602.9,1608.7,1615.5,1623.9,1634.2,1646.7,1661.2,1677.1,1693.7,1710.2,1725.6,1738.9,1749.4,1756.6,1760.3,1760.5,1757.7,1752.5,1745.6,1737.7,1729.7,1721.9,1714.7,1708.1,1701.7,1695.2,1688,1679.3,1668.9,1656.2,1641.3,1624.3,1605.9,1586.7,1567.6,1549.7,1533.8,1520.6,1510.6,1503.8,1500.2,1499.1,1499.8,1501.3,1502.8,1503.4,1502.3,1499.3,1494.3,1487.5,1479.5,1471.1,1463,1456.1,1451,1448.1,1447.8,1449.7,1453.5,1458.7,1464.4,1469.9,1474.7,1478.2,1480.3,1481,1480.6,1479.8,1479.1,1479.3,1481,1484.6,1490.3,1498.2,1508,1519,1530.8,1542.6,1553.8,1563.9,1572.9,1580.6,1587.6,1594.3,1601.4,1609.8,1620.1,1632.9,1648.6,1667.1,1688.1,1711,1735,1759.2,1782.7,1804.5,1824,1840.8,1854.8,1866.3,1875.6,1883.3,1890.2,1896.7,1903.3,1910.2,1917.3,1924.3,1930.5,1935.3,1937.8,1937.2,1933,1924.8,1912.5,1896.2,1876.6,1854.3,1830.1,1805,1779.5,1754.2,1729.4,1705,1680.7,1655.8,1629.6,1601.3,1570,1535.3,1496.8,1454.3,1408.2,1359,1307.3,1254,1199.9,1145.7,1091.7,1038.4,985.56,933,880.24,826.72,771.91,715.36,656.84,596.39,534.29,471.11,407.61,344.67,283.16,223.88,167.43,114.13,64.031,16.858,-27.911,-70.981,-113.14,-155.13,-197.58,-240.87,-285.12,-330.12,-375.41,-420.3,-464,-505.68,-544.61,-580.25,-612.31,-640.77,-665.9,-688.16,-708.16,-726.54,-743.88,-760.61,-776.9,-792.71,-807.72,-821.4,-833.09,-842.1,-847.81,-849.76,-847.73,-841.82,-832.4,-820.13,-805.83,-790.45,-774.91,-760.01,-746.33,-734.13,-723.39,-713.76,-704.64,-695.26,-684.82,-672.56,-657.89,-640.48,-620.31,-597.64,-573.04,-547.26,-521.16,-495.6,-471.34,-448.93,-428.64,-410.48,-394.16,-379.17,-364.88,-350.6,-335.73,-319.84,-302.72,-284.44,-265.33,-245.95,-226.98,-209.15,-193.12,-179.35,-168.08,-159.25,-152.5,-147.22,-142.65,-137.95,-132.31,-125.09,-115.91,-104.67,-91.591,-77.195,-62.226,-47.565,-34.118,-22.697,-13.926,-8.1621,-5.458,-5.5624,-7.9661,-11.979,-16.83,-21.772,-26.186,-29.666,-32.058,-33.476,-34.272,-34.973,-36.185,-38.494,-42.367,-48.068,-55.606,-64.714,-74.882,-85.406,-95.481,-104.3,-111.17,-115.56,-117.24,-116.23,-112.83,-107.59,-101.16,-94.266,-87.574,-81.587,-76.586,-72.591,-69.366,-66.455,-63.263,-59.146,-53.522,-45.959,-36.257,-24.491,-11.019,3.5531,18.443,32.78,45.72,56.554,64.795,70.248,73.029,73.562,72.521,70.742,69.123,68.508,69.581,72.784,78.263,85.868,95.177,105.57,116.3,126.65,135.97,143.81,149.95,154.47,157.65,160,162.1,164.57,167.93,172.54,178.5,185.69,193.74,202.1,210.12,217.15,222.66,226.3,227.99,227.97,226.73,225.01,223.71,223.72,225.89,230.84,238.92,250.15,264.18,280.38,297.84,315.53,332.4,347.49,360.04,369.56,375.92,379.27,380.04,378.88,376.49,373.61,370.81,368.5,366.84,365.72,364.83,363.71,361.83,358.7,353.94,347.39,339.14,329.52,319.12,308.64,298.89,290.6,284.4,280.65,279.41,280.46,283.23,286.94,290.67,293.43,294.35,292.74,288.17,280.59,270.24,257.7,243.75,229.33,215.36,202.67,191.89,183.38,177.22,173.18,170.85,169.62,168.9,168.12,166.9,165.07,162.73,160.24,158.16,157.19,158.03,161.3,167.44,176.62,188.69,203.21,219.46,236.55,253.47,269.28,283.13,294.45,302.92,308.53,311.59,312.6,312.21,311.13,309.95,309.12,308.87,309.14,309.65,309.91,309.3,307.2,303.03,296.43,287.26,275.67,262.08,247.18,231.8,216.84,203.16,191.43,182.1,175.29,170.8,168.14,166.59,165.29,163.39,160.12,154.94,147.61,138.18,127.06,114.87,102.45,90.674,80.358,72.158,66.474,63.403,62.732,63.975,66.451,69.382,72.008,73.702,74.056,72.939,70.517,67.226,63.709,60.721,59.016,59.244,61.855,67.027,74.639,84.289,95.342,107.02,118.49,129,137.97,145.08,150.27,153.81,156.19,158.12,160.34,163.6,168.48,175.37,184.36,195.23,207.54,220.6,233.63,245.85,256.58,265.34,271.93,276.44,279.25,280.97,282.35,284.18,287.16,291.81,298.38,306.83,316.78,327.59,338.44,348.43,356.69,362.51,365.41,365.26,362.25,356.86,349.86,342.15,334.65,328.21,323.48,320.84,320.34,321.72,324.46,327.85,331.09,333.42,334.24,333.15,330.06,325.15,318.87,311.87,304.89,298.65,293.77,290.63,289.35,289.75,291.37,293.52,295.4,296.18,295.13,291.68,285.54,276.72,265.49,252.37,238.06,223.28,208.76,195.03,182.46,171.12,160.86,151.27,141.82,131.9,120.99,108.67,94.781,79.43,63.006,46.143,29.657,14.445,1.371,-8.8443,-15.716,-19.06,-19.024,-16.07,-10.919,-4.4541,2.3832,8.7144,13.833,17.287,18.924,18.897,17.638,15.781,14.062,13.217,13.87,16.445,21.105,27.735,35.954,45.176,54.69,63.763,71.748,78.173,82.809,85.7,87.156,87.705,88.015,88.793,90.684,94.171,99.505,106.67,115.38,125.12,135.22,144.97,153.7,160.92,166.36,170.05,172.33,173.8,175.22,177.47,181.4,187.71,196.86,208.99,223.9,241.08,259.73,278.87,297.45,314.48,329.13,340.83,349.3,354.61,357.09,357.29,355.9,353.61,351.03,348.57,346.42,344.5,342.49,339.89,336.08,330.45,322.49,311.87,298.55,282.76,265,246.01,226.67,207.89,190.52,175.24,162.48,152.36,144.75,139.21,135.17,131.92,128.81,125.31,121.07,116.05,110.44,104.7,99.464,95.453,93.367,93.782,97.047,103.23,112.09,123.09,135.46,148.27,160.58,171.47,180.24,186.45,189.93,190.88,189.74,187.21,184.08,181.19,179.27,178.88,180.36,183.76,188.91,195.42,202.8,210.56,218.26,225.64,232.68,239.57,246.77,254.87,264.59,276.62,291.53,309.67,331.12,355.61,382.57,411.12,440.19,468.63,495.27,519.11,539.36,555.52,567.45,575.29,579.47,580.57,579.29,576.24,571.96,566.74,560.65,553.5,544.9,534.33,521.22,505.07,485.54,462.54,436.26,407.17,376,343.66,311.15,279.43,249.33,221.46,196.16,173.47,153.12,134.67,117.5,101,84.613,67.966,50.918,33.597,16.386,-0.1272,-15.229,-28.19,-38.375,-45.341,-48.918,-49.248,-46.788,-42.261,-36.583,-30.759,-25.764,-22.428,-21.351,-22.835,-26.869,-33.148,-41.128,-50.123,-59.406,-68.311,-76.335,-83.204,-88.906,-93.678,-97.967,-102.35,-107.45,-113.79,-121.76,-131.51,-142.91,-155.57,-168.88,-182.07,-194.31,-204.83,-213.01,-218.44,-220.98,-220.75,-218.08,-213.45,-207.36,-200.23,-192.27,-183.39,-173.17,-160.78,-145.07,-124.6,-97.791,-63.032,-18.836,36.016,102.37,180.63,270.7,372.03,483.64,604.25,732.32,866.19,1004.2,1144.5,1285.6,1425.7,1563.1,1696,1822.1,1939,2044.2,2134.3,2206,2255.6,2279.3,2273.5,2234.7,2160.1,2047.5,1895.6,1704,1473.6,1206.3,904.97,573.65,217.1,-159.23,-549.38,-947.09,-1346,-1739.6,-2121.7,-2486.3,-2827.6,-3140.5,-3420,-3661.9,-3862.7,-4019.4,-4130,-4193.4,-4209.5,-4179.1,-4104.2,-3988,-3834.2,-3647.9,-3434.4,-3199.7,-2949.9,-2691.1,-2428.9,-2168.7,-1915,-1671.7,-1441.7,-1227.4,-1030.2,-850.93,-690.05,-547.52,-423.04,-316.14,-226.2,-152.45,-94.002,-49.813,-18.637,0.9931,10.774,12.615,8.5929,0.87159,-8.402,-17.218,-23.821,-26.819,-25.266,-18.705,-7.1737,8.8454,28.506,50.714,74.271,98.01,120.92,142.24,161.53,178.66,193.8,207.33,219.74,231.54,243.15,254.81,266.54,278.12,289.14,299.07,307.32,313.37,316.86,317.66,315.95,312.17,307.05,301.51,296.56,293.19,292.27,294.4,299.92,308.8,320.69,334.95,350.76,367.2,383.37,398.51,412.07,423.79,433.68,442.02,449.28,456.02,462.82,470.15,478.28,487.27,496.92,506.8,516.33,524.84,531.68,536.3,538.4,537.88,534.95,530.09,523.99,517.43,511.26,506.22,502.86,501.49,502.1,504.39,507.8,511.6,514.94,517.04,517.23,515.05,510.35,503.24,494.1,483.55,472.31,461.12,450.63,441.34,433.49,427.05,421.76,417.13,412.54,407.38,401.09,393.31,383.94,373.17,361.48,349.59,338.4,328.86,321.87,318.16,318.21,322.17,329.87,340.84,354.34,369.5,385.41,401.21,416.23,430.04,442.47,453.64,463.9,473.76,483.77,494.45,506.17,519.11,533.18,548.06,563.23,578.01,591.7,603.68,613.49,620.9,625.99,629.15,631.02,632.43,634.3,637.5,642.76,650.56,661.04,674.02,688.96,705.07,721.38,736.85,750.51,761.56,769.43,773.89,774.98,773.04,768.61,762.32,754.82,746.63,738.07,729.2,719.78,709.33,697.13,682.38,664.23,641.96,615.04,583.19,546.46,505.18,459.93,411.46,360.59,308.1,254.65,200.64,146.27,91.415,35.777,-21.122,-79.812,-140.78,-204.34,-270.59,-339.33,-410.06,-481.98,-554.11,-625.32,-694.51,-760.69,-823.08,-881.24,-935.06,-984.75,-1030.9,-1074.2,-1115.5,-1155.8,-1195.8,-1236,-1276.9,-1318.2,-1360,-1401.6,-1442.6,-1482.4,-1520.5,-1556.5,-1590.3,-1621.9,-1651.8,-1680.4,-1708.1,-1735.6,-1763.3,-1791.3,-1819.6,-1847.9,-1875.7,-1902.1,-1926.3,-1947.6,-1965.1,-1978.4,-1987.1,-1991.5,-1991.8,-1988.8,-1983.3,-1976.3,-1968.6,-1961,-1954.1,-1948,-1942.7,-1937.9,-1932.9,-1927.1,-1919.8,-1910.3,-1898.2,-1883.3,-1865.7,-1845.8,-1824.3,-1802,-1779.8,-1758.5,-1738.8,-1721.1,-1705.7,-1692.5,-1681.1,-1670.9,-1661.5,-1652.2,-1642.5,-1632.1,-1621,-1609.5,-1597.8,-1586.8,-1577,-1569.2,-1563.9,-1561.5,-1561.9,-1564.8,-1569.8,-1575.8,-1582,-1587.1,-1590.4,-1590.8,-1587.9,-1581.5,-1571.7,-1558.9,-1543.8,-1527.2,-1510,-1492.9,-1476.4,-1461.1,-1446.8,-1433.6,-1421.1,-1408.8,-1396.3,-1383.2,-1369.3,-1354.7,-1339.6,-1324.6,-1310.3,-1297.5,-1287,-1279.5,-1275.2,-1274.4,-1276.8,-1281.8,-1288.8,-1296.6,-1304.2,-1310.5,-1314.6,-1316,-1314.2,-1309.2,-1301.4,-1291.3,-1279.7,-1267.3,-1255,-1243.2,-1232.4,-1222.7,-1213.9,-1205.5,-1197.1,-1188.1,-1177.9,-1166.1,-1152.6,-1137.5,-1121.2,-1104.3,-1087.4,-1071.6,-1057.5,-1045.8,-1036.8,-1030.8,-1027.5,-1026.4,-1026.8,-1028,-1029.1,-1029.2,-1028,-1025,-1020.2,-1014,-1006.9,-999.34,-992.17,-985.96,-981.15,-977.94,-976.26,-975.74,-975.79,-975.65,-974.52,-971.65,-966.46,-958.65,-948.21,-935.45,-920.97,-905.62,-890.33,-876.06,-863.65,-853.72,-846.61,-842.33,-840.56,-840.71,-842.01,-843.62,-844.71,-844.6,-842.87,-839.36,-834.23,-827.9,-821.02,-814.32,-808.55,-804.35,-802.16,-802.14,-804.17,-807.86,-812.6,-817.64,-822.22,-825.65,-827.4,-827.2,-825.03,-821.15,-816.05,-810.34,-804.7,-799.77,-796,-793.69,-792.83,-793.18,-794.29,-795.57,-796.35,-796.06,-794.25,-790.71,-785.51,-779.02,-771.85,-764.79,-758.74,-754.54,-752.9,-754.31,-758.93,-766.58,-776.79,-788.79,-801.65,-814.35,-825.94,-835.61,-842.8,-847.26,-849.04,-848.49,-846.18,-842.79,-839.04,-835.57,-832.83,-831.02,-830.1,-829.75,-829.51,-828.76,-826.92,-823.47,-818.09,-810.72,-801.52,-790.95,-779.61,-768.25,-757.6,-748.29,-740.77,-735.2,-731.47,-729.15,-727.59,-725.98,-723.45,-719.19,-712.58,-703.23,-691.06,-676.35,-659.64,-641.73,-623.53,-606,-589.99,-576.17,-564.91,-556.3,-550.1,-545.82,-542.79,-540.25,-537.49,-533.92,-529.17,-523.16,-516.05,-508.28,-500.44,-493.23,-487.31,-483.24,-481.36,-481.76,-484.28,-488.47,-493.72,-499.3,-504.5,-508.69,-511.48,-512.71,-512.54,-511.41,-510,-509.14,-509.67,-512.39,-517.91,-526.57,-538.39,-553.1,-570.13,-588.7,-607.93,-626.95,-645,-661.53,-676.26,-689.19,-700.61,-710.99,-720.95,-731.1,-741.97,-753.91,-767,-781.05,-795.62,-810.03,-823.49,-835.19,-844.44,-850.76,-853.94,-854.12,-851.77,-847.65,-842.71,-838,-834.51,-833.1,-834.33,-838.47,-845.39,-854.66,-865.55,-877.15,-888.49,-898.64,-906.82,-912.48,-915.37,-915.48,-913.08,-908.61,-902.58,-895.5,-887.78,-879.63,-871.08,-861.92,-851.76,-840.13,-826.5,-810.47,-791.78,-770.44,-746.76,-721.33,-695.02,-668.88,-644.05,-621.64,-602.62,-587.68,-577.21,-571.2,-569.31,-570.89,-575.06,-580.85,-587.3,-593.57,-599.04,-603.35,-606.43,-608.44,-609.78,-610.92,-612.34,-614.46,-617.49,-621.45,-626.11,-631.05,-635.66,-639.31,-641.38,-641.39,-639.11,-634.56,-628.11,-620.39,-612.26,-604.72,-598.79,-595.4,-595.25,-598.75,-605.96,-616.6,-630.06,-645.51,-661.97,-678.48,-694.17,-708.39,-720.77,-731.25,-740.05,-747.66,-754.67,-761.75,-769.47,-778.26,-788.28,-799.46,-811.42,-823.59,-835.26,-845.68,-854.18,-860.26,-863.66,-864.43,-862.89,-859.65,-855.47,-851.2,-847.65,-845.52,-845.25,-847,-850.66,-855.81,-861.83,-867.97,-873.49,-877.71,-880.15,-880.59,-879.05,-875.85,-871.49,-866.62,-861.91,-857.94,-855.12,-853.59,-853.23,-853.61,-854.06,-853.77,-851.85,-847.48,-840.01,-829.06,-814.53,-796.7,-776.11,-753.57,-729.99,-706.35,-683.5,-662.12,-642.65,-625.19,-609.57,-595.38,-581.99,-568.74,-554.95,-540.09,-523.82,-506.06,-486.99,-466.99,-446.64,-426.57,-407.41,-389.64,-373.56,-359.18,-346.29,-334.42,-322.92,-311.08,-298.2,-283.72,-267.32,-248.96,-228.94,-207.87,-186.61,-166.21,-147.75,-132.29,-120.73,-113.7,-111.54,-114.28,-121.63,-133.1,-148.03,-165.76,-185.66,-207.24,-230.25,-254.64,-280.57,-308.36,-338.4,-371.06,-406.59,-445.02,-486.14,-529.46,-574.21,-619.44,-664.09,-707.08,-747.45,-784.45,-817.62,-846.8,-872.18,-894.23,-913.63,-931.16,-947.61,-963.66,-979.77,-996.16,-1012.7,-1029.2,-1044.9,-1059.2,-1071.4,-1081,-1087.4,-1090.6,-1090.7,-1088.2,-1083.8,-1078.4,-1072.9,-1068.2,-1065,-1063.7,-1064.5,-1067.2,-1071.3,-1076.2,-1081.1,-1085.1,-1087.7,-1088.4,-1086.9,-1083.5,-1078.5,-1072.6,-1066.6,-1061.2,-1057.2,-1055,-1054.8,-1056.7,-1060.2,-1064.7,-1069.3,-1073.3,-1075.5,-1075.4,-1072.1,-1065.4,-1054.9,-1040.7,-1022.9,-1001.5,-976.67,-948.23,-915.86,-878.98,-836.76,-788.18,-732.09,-667.38,-593.07,-508.44,-413.16,-307.37,-191.7,-67.304,64.211,200.85,340.31,480.14,617.77,750.65,876.29,992.28,1096.3,1186,1259.1,1313.3,1346.2,1355.1,1337.4,1290.7,1212.4,1100.3,952.9,769.01,548.53,292.28,2.2103,-318.58,-665.89,-1034.5,-1418.3,-1810.6,-2204.4,-2592.5,-2967.9,-3324.1,-3655,-3955.4,-4221,-4448.2,-4634.4,-4777.7,-4877.3,-4932.9,-4944.9,-4914.7,-4844,-4735.4,-4592.2,-4418,-4217.4,-3995.3,-3756.9,-3507.9,-3253.9,-3000.3,-2752.4,-2514.8,-2291.2,-2084.7,-1897.3,-1730.3,-1583.9,-1457.7,-1350.4,-1260.5,-1186.2,-1125.5,-1076.5,-1037.4,-1006.5,-982.58,-964.3,-950.62,-940.53,-933.08,-927.26,-922.05,-916.41,-909.33,-899.88,-887.29,-871.05,-850.96,-827.17,-800.2,-770.89,-740.35,-709.83,-680.63,-653.96,-630.79,-611.8,-597.28,-587.14,-580.91,-577.81,-576.87,-577.02,-577.25,-576.66,-574.62,-570.74,-564.95,-557.43,-548.55,-538.79,-528.59,-518.34,-508.23,-498.23,-488.1,-477.4,-465.57,-452.02,-436.24,-417.85,-396.73,-373.07,-347.3,-320.16,-292.57,-265.54,-240.08,-217.07,-197.19,-180.81,-167.99,-158.44,-151.64,-146.84,-143.21,-139.95,-136.38,-132.04,-126.73,-120.53,-113.78,-106.98,-100.75,-95.693,-92.292,-90.845,-91.398,-93.73,-97.373,-101.67,-105.87,-109.23,-111.13,-111.12,-109.06,-105.09,-99.624,-93.308,-86.94,-81.356,-77.328,-75.459,-76.107,-79.345,-84.949,-92.44,-101.15,-110.33,-119.23,-127.22,-133.89,-139.08,-142.88,-145.66,-147.94,-150.37,-153.56,-158.01,-164.04,-171.67,-180.63,-190.38,-200.15,-209.04,-216.09,-220.46,-221.51,-218.86,-212.49,-202.71,-190.14,-175.66,-160.26,-144.95,-130.65,-118.07,-107.67,-99.572,-93.625,-89.415,-86.36,-83.808,-81.141,-77.87,-73.706,-68.6,-62.744,-56.525,-50.467,-45.131,-41.026,-38.515,-37.748,-38.632,-40.829,-43.792,-46.843,-49.27,-50.426,-49.839,-47.286,-42.852,-36.937,-30.224,-23.617,-18.139,-14.818,-14.572,-18.106,-25.844,-37.884,-54.011,-73.74,-96.399,-121.23,-147.49,-174.57,-202.06,-229.8,-257.88,-286.65,-316.6,-348.33,-382.39,-419.24,-459.11,-502.01,-547.64,-595.49,-644.83,-694.86,-744.74,-793.78,-841.46,-887.52,-931.99,-975.18,-1017.6,-1060,-1103.2,-1147.7,-1194.1,-1242.8,-1293.7,-1346.5,-1400.8,-1455.7,-1510.3,-1564,-1615.9,-1665.6,-1712.8,-1757.5,-1800.1,-1841,-1881,-1920.5,-1960.2,-2000.4,-2041.1,-2082,-2122.6,-2162.1,-2199.7,-2234.2,-2264.8,-2290.9,-2311.9,-2327.9,-2339.1,-2346,-2349.5,-2350.6,-2350,-2348.8,-2347.5,-2346.6,-2345.9,-2345.5,-2344.8,-2343.3,-2340.5,-2335.8,-2328.9,-2319.8,-2308.7,-2296,-2282.5,-2268.9,-2256.1,-2244.8,-2235.5,-2228.6,-2224,-2221.3,-2219.9,-2219,-2217.6,-2215,-2210.2,-2202.9,-2192.7,-2179.8,-2164.6,-2147.7,-2129.9,-2112.2,-2095.4,-2080.1,-2066.7,-2055.6,-2046.4,-2039.1,-2032.9,-2027.5,-2022.3,-2016.9,-2011.2,-2005.2,-1999.2,-1993.7,-1989.5,-1987.1,-1987.3,-1990.6,-1997.1,-2006.8,-2019.2,-2033.8,-2049.7,-2065.8,-2081.3,-2095.1,-2106.7,-2115.6,-2121.8,-2125.6,-2127.4,-2127.9,-2127.8,-2127.9,-2128.7,-2130.5,-2133.5,-2137.4,-2141.8,-2146.1,-2149.6,-2151.8,-2152,-2150.1,-2146.1,-2140.1,-2132.7,-2124.6,-2116.5,-2109.2,-2103.3,-2099.3,-2097.3,-2097.2,-2098.4,-2100.5,-2102.4,-2103.4,-2102.8,-2099.8,-2094.1,-2085.8,-2074.8,-2061.9,-2047.6,-2032.8,-2018,-2004.1,-1991.3,-1979.9,-1969.6,-1960.2,-1950.9,-1941.2,-1930.2,-1917.5,-1902.5,-1885.1,-1865.4,-1844,-1821.3,-1798.2,-1775.4,-1753.8,-1733.8,-1715.8,-1699.9,-1685.8,-1673,-1661,-1649.1,-1636.6,-1623.1,-1608.3,-1592.2,-1575.2,-1557.9,-1541,-1525.4,-1511.8,-1501,-1493.4,-1489.1,-1487.8,-1489,-1491.8,-1495.3,-1498.3,-1500.1,-1499.7,-1496.7,-1490.9,-1482.5,-1471.9,-1459.7,-1446.9,-1434.2,-1422.3,-1411.7,-1402.7,-1395.3,-1389,-1383.4,-1377.8,-1371.5,-1363.9,-1354.7,-1343.6,-1330.7,-1316.4,-1301.4,-1286.3,-1271.9,-1258.8,-1247.6,-1238.5,-1231.5,-1226.2,-1222,-1218.4,-1214.3,-1209.3,-1202.8,-1194.5,-1184.4,-1173,-1160.9,-1149.1,-1138.4,-1130,-1124.6,-1122.9,-1125.2,-1131.4,-1141.3,-1154,-1168.7,-1184.4,-1200.1,-1215,-1228.3,-1239.9,-1249.6,-1257.8,-1264.9,-1271.6,-1278.5,-1286.3,-1295.2,-1305.4,-1316.9,-1329.1,-1341.5,-1353.4,-1363.9,-1372.5,-1378.7,-1382.1,-1382.9,-1381.4,-1378,-1373.4,-1368.3,-1363.5,-1359.5,-1356.6,-1354.8,-1354,-1353.7,-1353.6,-1352.9,-1351,-1347.8,-1342.9,-1336.4,-1328.9,-1320.7,-1312.8,-1306,-1301,-1298.6,-1299,-1302.6,-1308.9,-1317.6,-1327.8,-1338.7,-1349.2,-1358.6,-1366,-1371.2,-1373.8,-1374.1,-1372.5,-1369.7,-1366.5,-1363.5,-1361.4,-1360.7,-1361.5,-1363.8,-1367.2,-1371.2,-1375.3,-1378.9,-1381.4,-1382.6,-1382.4,-1381.1,-1379.2,-1377.4,-1376.4,-1376.9,-1379.7,-1385.2,-1393.6,-1404.5,-1417.6,-1432,-1446.7,-1460.8,-1473.3,-1483.2,-1490.2,-1494,-1494.8,-1493.1,-1489.6,-1485.3,-1481.1,-1477.9,-1476.5,-1477.4,-1480.6,-1486.1,-1493.4,-1502,-1511.2,-1520.2,-1528.5,-1535.5,-1541.3,-1545.7,-1549,-1551.7,-1554.2,-1557,-1560.3,-1564.4,-1569,-1573.8,-1578.2,-1581.5,-1582.8,-1581.4,-1576.6,-1568,-1555.7,-1539.9,-1521,-1500.1,-1478,-1455.7,-1434.4,-1414.7,-1397.2,-1382.1,-1369.3,-1358.4,-1348.8,-1339.8,-1330.5,-1320.5,-1309.2,-1296.5,-1282.5,-1267.6,-1252.4,-1237.7,-1224.3,-1212.8,-1203.8,-1197.5,-1193.9,-1192.7,-1193.4,-1195.2,-1197.5,-1199.5,-1200.6,-1200.6,-1199.4,-1197.2,-1194.5,-1191.9,-1190.1,-1189.8,-1191.5,-1195.6,-1202.1,-1210.8,-1221.2,-1232.6,-1244.2,-1255.4,-1265.2,-1273.4,-1279.7,-1284.1,-1287.1,-1289.1,-1291.1,-1293.7,-1297.7,-1303.6,-1311.8,-1322.2,-1334.5,-1348.2,-1362.6,-1377,-1390.4,-1402.4,-1412.5,-1420.4,-1426.5,-1431.1,-1434.9,-1438.6,-1442.9,-1448.6,-1456.1,-1465.6,-1477,-1489.9,-1503.7,-1517.5,-1530.5,-1541.8,-1550.7,-1556.7,-1559.7,-1559.6,-1556.8,-1551.6,-1544.7,-1536.6,-1527.7,-1518.2,-1508.2,-1497.3,-1485.3,-1471.5,-1455.3,-1436.1,-1413.5,-1387.3,-1357.8,-1325.1,-1290.2,-1253.9,-1217.2,-1181.4,-1147.4,-1116.1,-1088.1,-1063.6,-1042.9,-1025.4,-1011,-998.87,-988.67,-979.94,-972.46,-966.24,-961.57,-958.93,-958.99,-962.44,-969.96,-982.08,-999.06,-1020.9,-1047.2,-1077.2,-1110.1,-1144.7,-1179.8,-1214.2,-1247.1,-1277.5,-1305.1,-1329.8,-1351.5,-1370.8,-1388,-1403.7,-1418.1,-1431.7,-1444.3,-1456,-1466.2,-1474.5,-1480.4,-1483.2,-1482.6,-1478.4,-1470.8,-1460.2,-1447.2,-1432.7,-1417.7,-1403.3,-1390.3,-1379.6,-1371.5,-1366.1,-1363.4,-1362.8,-1363.6,-1365.2,-1366.8,-1367.8,-1367.9,-1366.9,-1364.9,-1362.4,-1360,-1358.4,-1358.2,-1360.2,-1364.6,-1371.7,-1381.2,-1392.7,-1405.4,-1418.5,-1431.2,-1442.4,-1451.7,-1458.4,-1462.3,-1463.6,-1462.4,-1459.3,-1454.6,-1448.7,-1441.8,-1433.8,-1424.2,-1412.6,-1397.8,-1378.8,-1354.4,-1323.6,-1285.3,-1238.8,-1184,-1120.7,-1049.6,-971.28,-886.95,-797.86,-705.39,-610.93,-515.83,-421.35,-328.67,-238.96,-153.4,-73.3,-0.17774,64.161,117.58,157.62,181.53,186.38,169.19,127.12,57.674,-41.157,-170.68,-331.38,-522.85,-743.71,-991.68,-1263.6,-1555.7,-1863.6,-2182.2,-2506.7,-2831.8,-3152.4,-3463.5,-3760.3,-4038.3,-4293.3,-4521.4,-4719.1,-4883.3,-5011.4,-5101.5,-5152,-5162.5,-5133.1,-5064.8,-4959.7,-4820.7,-4651.5,-4456.4,-4240.3,-4008.6,-3766.4,-3519.1,-3271.3,-3027.6,-2791.4,-2565.9,-2353.2,-2154.9,-1972,-1804.9,-1653.9,-1518.6,-1398.9,-1294.3,-1204.3,-1128.5,-1066.1,-1016.4,-978.43,-951.01,-932.71,-921.86,-916.63,-915.1,-915.38,-915.73,-914.68,-911.15,-904.49,-894.54,-881.6,-866.37,-849.82,-833.12,-817.43,-803.82,-793.13,-785.91,-782.36,-782.37,-785.56,-791.36,-799.13,-808.24,-818.2,-828.71,-839.68,-851.27,-863.81,-877.71,-893.39,-911.17,-931.16,-953.23,-976.91,-1001.5,-1026,-1049.2,-1070.1,-1087.6,-1100.6,-1108.8,-1111.9,-1109.9,-1103.5,-1093.4,-1080.6,-1066.1,-1050.8,-1035.6,-1021.1,-1007.5,-994.74,-982.65,-970.78,-958.63,-945.71,-931.7,-916.45,-900.08,-882.94,-865.62,-848.83,-833.34,-819.88,-809.01,-801.06,-796.1,-793.9,-793.94,-795.53,-797.87,-800.12,-801.57,-801.68,-800.19,-797.1,-792.69,-787.46,-782.02,-777.05,-773.11,-770.62,-769.7,-770.23,-771.78,-773.67,-775.07,-775.08,-772.86,-767.75,-759.32,-747.48,-732.45,-714.75,-695.14,-674.51,-653.76,-633.71,-614.94,-597.79,-582.28,-568.11,-554.75,-541.5,-527.61,-512.37,-495.27,-476.06,-454.76,-431.72,-407.56,-383.05,-359.06,-336.43,-315.8,-297.63,-282.02,-268.8,-257.49,-247.4,-237.72,-227.63,-216.44,-203.64,-189.02,-172.7,-155.07,-136.78,-118.65,-101.54,-86.233,-73.371,-63.327,-56.182,-51.718,-49.456,-48.732,-48.791,-48.914,-48.518,-47.252,-45.055,-42.178,-39.158,-36.752,-35.844,-37.333,-42.018,-50.495,-63.089,-79.819,-100.41,-124.32,-150.86,-179.27,-208.85,-239.02,-269.48,-300.16,-331.31,-363.39,-397.06,-433.04,-472.02,-514.54,-560.93,-611.21,-665.13,-722.13,-781.45,-842.21,-903.5,-964.52,-1024.7,-1083.5,-1141.1,-1197.5,-1253.2,-1308.9,-1365.2,-1422.6,-1481.7,-1542.6,-1605.2,-1669.2,-1734,-1798.7,-1862.4,-1924.4,-1983.9,-2040.3,-2093.6,-2143.7,-2191.1,-2236.3,-2280,-2323,-2365.9,-2409.2,-2452.8,-2496.9,-2540.8,-2584,-2625.6,-2664.8,-2700.8,-2732.9,-2760.9,-2784.7,-2804.5,-2821,-2834.9,-2847.1,-2858.5,-2869.7,-2881.3,-2893.4,-2906.2,-2919,-2931.5,-2942.7,-2951.9,-2958.5,-2961.9,-2961.8,-2958.2,-2951.5,-2942.2,-2931,-2918.7,-2906.1,-2893.7,-2882,-2871.1,-2860.8,-2850.7,-2840.3,-2828.9,-2815.8,-2800.6,-2782.9,-2762.8,-2740.4,-2716.2,-2690.9,-2665.4,-2640.3,-2616.5,-2594.5,-2574.4,-2556.4,-2540.1,-2524.9,-2510.4,-2495.7,-2480.2,-2463.6,-2445.4,-2425.9,-2405.2,-2384.1,-2363.1,-2343.1,-2325,-2309.3,-2296.4,-2286.5,-2279.5,-2274.9,-2272,-2270.2,-2268.6,-2266.5,-2263.4,-2259.2,-2253.7,-2247.4,-2240.7,-2234.3,-2228.9,-2225.2,-2223.6,-2224.3,-2227.1,-2231.7,-2237.5,-2243.6,-2249.1,-2253.3,-2255.4,-2255,-2252.2,-2247.1,-2240.3,-2232.5,-2224.8,-2218,-2213.1,-2210.5,-2210.7,-2213.6,-2218.9,-2226,-2234,-2242.1,-2249.5,-2255.3,-2259.2,-2260.8,-2260.3,-2257.9,-2254.2,-2249.8,-2245.4,-2241.4,-2238.1,-2235.6,-2233.8,-2232.2,-2230.3,-2227.3,-2222.5,-2215.4,-2205.6,-2193,-2177.8,-2160.4,-2141.7,-2122.4,-2103.4,-2085.7,-2069.8,-2056.3,-2045.2,-2036.5,-2029.7,-2024.1,-2019.1,-2013.9,-2007.9,-2000.8,-1992.5,-1983,-1972.7,-1962.2,-1952.2,-1943.3,-1936.1,-1930.9,-1927.9,-1926.7,-1927,-1927.8,-1928.5,-1928,-1925.6,-1920.6,-1912.7,-1901.8,-1888.1,-1872.3,-1855.2,-1837.5,-1820.2,-1804.1,-1789.7,-1777.3,-1766.8,-1758.1,-1750.6,-1743.6,-1736.4,-1728.5,-1719.5,-1709,-1697.2,-1684.5,-1671.3,-1658.4,-1646.4,-1636.2,-1628,-1622.1,-1618.5,-1616.8,-1616.4,-1616.5,-1616.3,-1615,-1611.9,-1606.7,-1599.2,-1589.6,-1578.4,-1566.4,-1554.3,-1543,-1533.2,-1525.7,-1520.5,-1517.8,-1517.1,-1518,-1519.7,-1521.3,-1522.2,-1521.6,-1519.2,-1514.9,-1508.8,-1501.4,-1493.2,-1485.1,-1477.5,-1471.2,-1466.4,-1463.2,-1461.5,-1460.8,-1460.5,-1459.8,-1458,-1454.5,-1448.7,-1440.7,-1430.5,-1418.6,-1405.6,-1392.5,-1380,-1369.1,-1360.5,-1354.6,-1351.5,-1351,-1352.9,-1356.3,-1360.7,-1365.2,-1369.3,-1372.5,-1374.7,-1376,-1376.8,-1377.7,-1379.2,-1382,-1386.7,-1393.7,-1402.9,-1414.2,-1427.1,-1440.7,-1454.4,-1467,-1477.9,-1486.5,-1492.3,-1495.5,-1496.3,-1495.4,-1493.6,-1491.9,-1491.3,-1492.6,-1496.4,-1503.2,-1512.9,-1525.2,-1539.8,-1555.8,-1572.7,-1589.6,-1606,-1621.7,-1636.4,-1650.4,-1664.1,-1677.9,-1692.5,-1708.3,-1725.8,-1745,-1765.8,-1787.9,-1810.6,-1833,-1854.3,-1873.6,-1890.1,-1903.4,-1913.1,-1919.4,-1922.5,-1923.1,-1921.7,-1919.1,-1916,-1912.7,-1909.5,-1906.3,-1902.8,-1898.6,-1893.1,-1885.6,-1875.7,-1863,-1847.5,-1829.5,-1809.3,-1787.8,-1765.9,-1744.5,-1724.5,-1706.6,-1691.1,-1678.3,-1667.6,-1658.7,-1650.6,-1642.2,-1632.7,-1620.9,-1606.3,-1588.2,-1566.5,-1541.4,-1513.3,-1482.8,-1450.7,-1417.9,-1384.9,-1352.4,-1320.7,-1289.9,-1260,-1230.8,-1202,-1173.3,-1144.8,-1116.5,-1088.7,-1061.9,-1037,-1014.7,-996.04,-981.83,-972.77,-969.28,-971.45,-979.03,-991.44,-1007.8,-1027.1,-1048.2,-1070.1,-1091.8,-1112.8,-1132.7,-1151.5,-1169.4,-1187.1,-1205.1,-1224.1,-1244.6,-1267.1,-1291.6,-1318.1,-1346.2,-1375.2,-1404.4,-1433.2,-1460.9,-1486.9,-1510.9,-1533.1,-1553.5,-1572.5,-1590.7,-1608.7,-1626.8,-1645.3,-1664.4,-1683.8,-1703,-1721.5,-1738.4,-1753,-1764.5,-1772.4,-1776.5,-1776.9,-1774,-1768.4,-1761.2,-1753.5,-1746.3,-1740.7,-1737.4,-1737,-1739.5,-1744.8,-1752.5,-1761.9,-1772.2,-1782.6,-1792.4,-1801.1,-1808.6,-1814.6,-1819.5,-1823.6,-1827.3,-1830.9,-1834.8,-1838.9,-1843.1,-1846.9,-1849.7,-1850.4,-1848.4,-1842.6,-1832.3,-1817,-1796.3,-1770.4,-1739.5,-1704.1,-1664.8,-1622.2,-1577,-1529.3,-1479.4,-1426.9,-1371.4,-1312.1,-1248.1,-1178.4,-1102.3,-1019,-928.29,-830.22,-725.36,-614.71,-499.68,-382.03,-263.78,-147.11,-34.284,72.451,170.89,258.9,334.4,395.35,439.74,465.51,470.56,452.8,410.16,340.68,242.63,114.68,-43.987,-233.47,-453.04,-701.04,-974.83,-1270.8,-1584.5,-1910.6,-2243.4,-2576.8,-2904.5,-3220.7,-3519.7,-3796.4,-4046.5,-4266.5,-4453.6,-4606,-4722.4,-4802.3,-4845.9,-4853.8,-4827.2,-4767.5,-4676.9,-4557.8,-4413.1,-4245.9,-4060.2,-3859.8,-3649,-3432.3,-3214,-2998.2,-2789,-2589.5,-2402.6,-2230.3,-2073.9,-1933.9,-1810.4,-1702.8,-1610,-1530.8,-1463.8,-1407.8,-1361.5,-1323.8,-1294,-1271.3,-1255.1,-1244.9,-1240.1,-1239.9,-1243.6,-1250.1,-1258.4,-1267.4,-1275.9,-1282.9,-1287.6,-1289.5,-1288.4,-1284.5,-1278.3,-1270.6,-1262.3,-1254.2,-1247.4,-1242.4,-1239.8,-1239.5,-1241.4,-1244.9,-1249.4,-1253.9,-1257.7,-1259.9,-1260,-1257.8,-1253.1,-1246.3,-1237.7,-1227.9,-1217.4,-1206.6,-1195.8,-1185.1,-1174.2,-1162.7,-1149.9,-1135.1,-1117.6,-1096.7,-1072.3,-1044.1,-1012.4,-977.92,-941.44,-904.05,-866.88,-831.03,-797.42,-766.71,-739.21,-714.91,-693.46,-674.23,-656.46,-639.31,-622.04,-604.05,-585.02,-564.91,-543.99,-522.76,-501.91,-482.2,-464.35,-448.97,-436.43,-426.85,-420.07,-415.71,-413.2,-411.91,-411.23,-410.68,-409.97,-409.08,-408.23,-407.89,-408.66,-411.24,-416.24,-424.15,-435.22,-449.38,-466.27,-485.19,-505.25,-525.4,-544.55,-561.73,-576.16,-587.34,-595.13,-599.69,-601.52,-601.32,-599.92,-598.16,-596.77,-596.31,-597.06,-599.03,-601.96,-605.39,-608.74,-611.4,-612.86,-612.8,-611.1,-607.97,-603.84,-599.35,-595.28,-592.41,-591.45,-592.9,-597.01,-603.72,-612.68,-623.27,-634.68,-646.01,-656.41,-665.16,-671.78,-676.07,-678.18,-678.54,-677.8,-676.8,-676.37,-677.28,-680.13,-685.23,-692.61,-702,-712.88,-724.54,-736.18,-747.06,-756.55,-764.25,-770.03,-774.06,-776.77,-778.77,-780.82,-783.64,-787.89,-794.03,-802.29,-812.62,-824.73,-838.16,-852.32,-866.62,-880.57,-893.89,-906.52,-918.7,-930.92,-943.91,-958.49,-975.52,-995.78,-1019.8,-1048,-1080.3,-1116.3,-1155.6,-1197.2,-1240.4,-1284.2,-1327.9,-1371.1,-1413.5,-1455.2,-1496.4,-1537.7,-1579.9,-1623.4,-1668.8,-1716.5,-1766.6,-1818.7,-1872.3,-1926.7,-1981,-2034.2,-2085.3,-2133.7,-2178.9,-2220.6,-2259.1,-2294.6,-2327.7,-2359.1,-2389.4,-2419.2,-2448.7,-2477.9,-2506.6,-2534.3,-2560.3,-2583.8,-2604,-2620.3,-2632.2,-2639.5,-2642.5,-2641.5,-2637.2,-2630.5,-2622.4,-2613.6,-2604.9,-2596.9,-2589.7,-2583.2,-2577.2,-2571.1,-2564.4,-2556.4,-2546.8,-2535.4,-2522,-2507.1,-2491.2,-2475,-2459.4,-2445.2,-2433,-2423.4,-2416.5,-2412.2,-2410,-2409.3,-2409.2,-2408.7,-2407.3,-2404.1,-2398.9,-2391.7,-2382.8,-2372.8,-2362.5,-2352.7,-2344.5,-2338.4,-2335.1,-2334.7,-2337.2,-2342.1,-2348.9,-2356.7,-2364.9,-2372.7,-2379.5,-2385.1,-2389.4,-2392.7,-2395.4,-2398.3,-2401.9,-2406.9,-2413.8,-2422.8,-2433.9,-2446.7,-2460.7,-2475.3,-2489.7,-2503.1,-2515,-2525,-2533.1,-2539.6,-2544.7,-2549.4,-2554.2,-2560,-2567.3,-2576.7,-2588,-2601.3,-2615.9,-2631.1,-2646,-2659.7,-2671.4,-2680.3,-2686.2,-2688.8,-2688.6,-2686,-2681.7,-2676.7,-2671.7,-2667.4,-2664.3,-2662.7,-2662.4,-2663.2,-2664.2,-2665,-2664.6,-2662.4,-2657.9,-2650.8,-2641.2,-2629.2,-2615.3,-2600.2,-2584.5,-2568.8,-2553.4,-2538.5,-2524.2,-2509.8,-2495,-2478.9,-2460.7,-2439.7,-2415.3,-2387,-2355,-2319.5,-2281,-2240.4,-2198.7,-2156.9,-2115.8,-2076.2,-2038.7,-2003.3,-1969.9,-1938.2,-1907.6,-1877.4,-1847.2,-1816.3,-1784.5,-1751.8,-1718.5,-1684.9,-1651.7,-1619.7,-1589.5,-1561.6,-1536.6,-1514.3,-1494.7,-1477.4,-1461.8,-1447.1,-1432.7,-1418.2,-1403.1,-1387.3,-1371.1,-1355,-1339.7,-1326,-1314.7,-1306.7,-1302.5,-1302.3,-1306.2,-1313.9,-1324.7,-1337.7,-1352.2,-1367.1,-1381.7,-1395.4,-1407.9,-1419.1,-1429.3,-1439,-1448.6,-1458.8,-1470,-1482.6,-1496.6,-1511.9,-1528,-1544.3,-1560,-1574.4,-1586.8,-1596.6,-1603.8,-1608.3,-1610.5,-1611.2,-1611.1,-1611.1,-1612.2,-1615,-1620.3,-1628.1,-1638.4,-1651,-1665.1,-1680.2,-1695.4,-1710.1,-1723.7,-1736,-1746.8,-1756.5,-1765.4,-1774,-1782.9,-1792.5,-1803.2,-1815,-1827.5,-1840.2,-1852.4,-1863.1,-1871.3,-1876.1,-1876.7,-1872.8,-1864.2,-1851.3,-1834.4,-1814.6,-1792.8,-1770.1,-1747.4,-1725.6,-1705.2,-1686.3,-1669,-1652.8,-1637.3,-1621.8,-1605.8,-1588.7,-1570.3,-1550.5,-1529.5,-1507.9,-1486.1,-1465,-1445.1,-1427.1,-1411.3,-1397.7,-1386.1,-1376.2,-1367.1,-1358.2,-1348.6,-1337.9,-1325.4,-1311.2,-1295.4,-1278.6,-1261.4,-1244.9,-1230.2,-1218.1,-1209.4,-1204.8,-1204.4,-1208.2,-1215.8,-1226.7,-1240,-1255,-1271,-1287.6,-1304.5,-1321.7,-1339.3,-1357.8,-1377.7,-1399.5,-1423.5,-1449.9,-1478.6,-1509.1,-1540.9,-1572.9,-1604.2,-1633.8,-1660.8,-1684.5,-1704.4,-1720.7,-1733.5,-1743.4,-1751.3,-1758.1,-1764.7,-1771.9,-1780.3,-1790.1,-1801.4,-1813.8,-1826.8,-1839.7,-1851.8,-1862.3,-1870.7,-1876.8,-1880.4,-1881.7,-1881.2,-1879.4,-1876.9,-1874.2,-1871.7,-1869.6,-1867.9,-1866,-1863.5,-1859.7,-1853.7,-1844.8,-1832.6,-1816.5,-1796.7,-1773.2,-1746.6,-1717.5,-1686.8,-1655.1,-1623.3,-1591.9,-1561.1,-1531.1,-1501.6,-1472.4,-1443.1,-1413.1,-1382.2,-1350.3,-1317.6,-1284.4,-1251.5,-1219.7,-1190.1,-1163.6,-1141.2,-1123.5,-1110.9,-1103.4,-1100.6,-1102,-1106.6,-1113.3,-1121.1,-1129.2,-1136.7,-1143.2,-1148.7,-1153.5,-1158.1,-1163.2,-1169.6,-1178.1,-1189.5,-1204.1,-1222.1,-1243.3,-1267.2,-1293.2,-1320.6,-1348.5,-1376.2,-1403.3,-1429.4,-1454.5,-1478.7,-1502.5,-1526.4,-1550.7,-1575.9,-1602.1,-1629.3,-1657.1,-1684.9,-1711.9,-1737.4,-1760.4,-1780.2,-1796.2,-1808.3,-1816.4,-1821,-1822.8,-1822.6,-1821.4,-1820.2,-1819.6,-1820.3,-1822.5,-1826.1,-1830.8,-1835.9,-1840.7,-1844.5,-1846.6,-1846.6,-1844.2,-1839.5,-1833,-1825.4,-1817.4,-1809.8,-1803.6,-1799.3,-1797.3,-1797.5,-1799.9,-1803.7,-1808.2,-1812.4,-1815.4,-1816.3,-1814.5,-1809.3,-1800.6,-1788.2,-1772.2,-1752.8,-1730,-1703.9,-1674.2,-1640.5,-1601.9,-1557.4,-1506,-1446.3,-1377.3,-1297.8,-1207.4,-1105.7,-993.04,-870.22,-738.48,-599.49,-455.26,-308.03,-160.16,-14.041,127.94,263.48,390.3,506.14,608.74,695.74,764.65,812.85,837.58,836.01,805.37,743.02,646.73,514.75,346.12,140.76,-100.39,-375.25,-680.66,-1012.4,-1365.3,-1733.4,-2110.5,-2489.6,-2864.2,-3227.8,-3574,-3897.5,-4193.1,-4456.7,-4684.9,-4874.7,-5024.2,-5132,-5197.4,-5220.4,-5201.7,-5142.5,-5045.2,-4912.3,-4747.5,-4554.9,-4339.4,-4106.2,-3860.8,-3608.9,-3355.9,-3107.1,-2867.1,-2639.8,-2428.4,-2235.2,-2061.6,-1908.2,-1775,-1661.3,-1566.2,-1488.4,-1426.5,-1379.1,-1345,-1322.7,-1311.2,-1309.1,-1315.2,-1328.1,-1346.4,-1368.5,-1392.6,-1416.9,-1439.7,-1459.5,-1474.7,-1484.4,-1487.9,-1485,-1476.1,-1461.8,-1442.9,-1420.8,-1396.6,-1371.5,-1346.5,-1322.1,-1298.9,-1276.9,-1255.8,-1235.3,-1214.7,-1193.6,-1171.6,-1148.4,-1124,-1098.8,-1073.2,-1047.8,-1023.3,-1000.4,-979.53,-961.1,-945.11,-931.31,-919.19,-908.07,-897.16,-885.64,-872.83,-858.22,-841.54,-822.84,-802.4,-780.75,-758.56,-736.55,-715.38,-695.57,-677.42,-660.94,-645.91,-631.87,-618.19,-604.19,-589.26,-572.91,-554.89,-535.23,-514.28,-492.62,-471.07,-450.53,-431.92,-416.04,-403.48,-394.52,-389.15,-387.04,-387.57,-389.95,-393.34,-396.91,-400,-402.16,-403.25,-403.42,-403.07,-402.82,-403.35,-405.34,-409.36,-415.73,-424.52,-435.49,-448.11,-461.66,-475.27,-488.08,-499.33,-508.43,-515.09,-519.29,-521.33,-521.73,-521.18,-520.42,-520.14,-520.86,-522.89,-526.23,-530.61,-535.52,-540.27,-544.08,-546.22,-546.11,-543.41,-538.05,-530.29,-520.68,-509.96,-499.02,-488.76,-479.97,-473.27,-469,-467.21,-467.67,-469.91,-473.27,-477.07,-480.61,-483.38,-485.03,-485.49,-484.92,-483.73,-482.47,-481.74,-482.12,-484.06,-487.78,-493.24,-500.14,-507.9,-515.81,-523.05,-528.82,-532.48,-533.6,-532.05,-528,-521.93,-514.57,-506.78,-499.48,-493.54,-489.66,-488.31,-489.69,-493.74,-500.16,-508.5,-518.25,-528.94,-540.24,-552.04,-564.49,-578.01,-593.23,-610.96,-632.05,-657.29,-687.31,-722.47,-762.82,-808.05,-857.53,-910.39,-965.59,-1022,-1078.7,-1134.8,-1189.7,-1243.2,-1295.3,-1346.3,-1396.7,-1447.2,-1498.2,-1550.4,-1603.8,-1658.6,-1714.3,-1770.4,-1826.2,-1880.8,-1933.2,-1982.8,-2029,-2071.4,-2110.3,-2145.7,-2178.5,-2209.1,-2238.6,-2267.5,-2296.4,-2325.6,-2355.1,-2384.7,-2413.7,-2441.4,-2467,-2489.8,-2508.9,-2524.1,-2535,-2541.8,-2544.9,-2544.9,-2542.5,-2538.5,-2533.5,-2528.2,-2522.7,-2517.1,-2511.2,-2504.6,-2496.7,-2487,-2475.1,-2460.7,-2443.6,-2424.3,-2403,-2380.7,-2358.1,-2336.1,-2315.7,-2297.5,-2281.8,-2268.9,-2258.6,-2250.3,-2243.2,-2236.7,-2229.6,-2221.4,-2211.3,-2199.2,-2184.9,-2168.7,-2151.4,-2133.5,-2116,-2099.7,-2085.1,-2072.7,-2062.6,-2054.7,-2048.5,-2043.3,-2038.4,-2033,-2026.4,-2018.3,-2008.2,-1996.5,-1983.3,-1969.4,-1955.3,-1941.8,-1929.7,-1919.4,-1911.1,-1904.8,-1900.3,-1897.1,-1894.5,-1891.8,-1888.4,-1883.8,-1877.8,-1870.6,-1862.3,-1853.6,-1845.3,-1838.2,-1833.1,-1830.8,-1831.6,-1835.7,-1843.1,-1853.2,-1865.4,-1879,-1893.1,-1907.1,-1920.3,-1932.5,-1943.7,-1954.1,-1964.1,-1974.4,-1985.6,-1998.1,-2012.5,-2028.8,-2046.8,-2066.2,-2086.2,-2106,-2124.6,-2141.2,-2155,-2165.5,-2172.4,-2175.9,-2176.1,-2173.6,-2169.2,-2163.4,-2156.8,-2149.7,-2142.5,-2134.8,-2126.4,-2116.6,-2104.9,-2090.6,-2073.1,-2052,-2027.3,-1999.2,-1968.3,-1935.2,-1901.1,-1867,-1833.8,-1802.3,-1773.3,-1746.8,-1722.8,-1701,-1680.6,-1660.9,-1641,-1620.1,-1597.6,-1573.3,-1546.9,-1518.9,-1489.7,-1460,-1430.4,-1401.9,-1374.9,-1349.8,-1326.8,-1305.8,-1286.4,-1268,-1250,-1231.7,-1212.8,-1192.9,-1172,-1150.3,-1128.4,-1107.1,-1087,-1069.2,-1054.3,-1042.8,-1035.2,-1031.2,-1030.6,-1032.9,-1037.2,-1042.8,-1049,-1055,-1060.6,-1065.5,-1069.8,-1073.9,-1078.4,-1083.6,-1090.2,-1098.6,-1108.9,-1121.1,-1134.7,-1149.4,-1164.2,-1178.4,-1191.3,-1202.1,-1210.5,-1216.3,-1219.6,-1221,-1221.2,-1221,-1221.3,-1223,-1226.7,-1232.9,-1241.7,-1252.9,-1265.9,-1280.1,-1294.7,-1308.8,-1321.8,-1333.1,-1342.6,-1350.3,-1356.4,-1361.6,-1366.5,-1371.7,-1378,-1385.8,-1395.2,-1406.2,-1418.5,-1431.6,-1444.7,-1457.2,-1468.4,-1477.6,-1484.7,-1489.5,-1492.2,-1493.3,-1493.3,-1492.9,-1492.8,-1493.3,-1494.8,-1497.3,-1500.4,-1503.8,-1506.7,-1508.3,-1507.9,-1504.8,-1498.6,-1489.2,-1476.8,-1461.7,-1444.8,-1426.9,-1408.8,-1391.4,-1375.4,-1361.3,-1349,-1338.6,-1329.6,-1321.4,-1313.4,-1305.1,-1295.9,-1285.7,-1274.6,-1262.8,-1250.9,-1239.9,-1230.4,-1223.4,-1219.5,-1219.1,-1222.5,-1229.4,-1239.2,-1251.2,-1264.4,-1277.8,-1290.2,-1301,-1309.6,-1315.8,-1319.8,-1321.8,-1322.8,-1323.4,-1324.5,-1327,-1331.3,-1337.8,-1346.5,-1357.2,-1369.4,-1382.4,-1395.6,-1408.4,-1420.1,-1430.5,-1439.5,-1447.3,-1454.2,-1460.7,-1467.4,-1474.7,-1482.9,-1492.1,-1502.1,-1512.5,-1522.6,-1531.8,-1539.1,-1543.9,-1545.7,-1544.2,-1539.4,-1531.6,-1521.7,-1510.3,-1498.5,-1487.2,-1477.4,-1469.6,-1464.1,-1461,-1459.9,-1460.3,-1461.4,-1462.4,-1462.4,-1460.8,-1457.1,-1451.1,-1443,-1433.2,-1422.1,-1410.4,-1398.7,-1387.6,-1377.3,-1367.8,-1359,-1350.3,-1341.1,-1330.6,-1318,-1302.7,-1284.1,-1262.2,-1237,-1208.8,-1178.3,-1146.2,-1113.3,-1080.4,-1048,-1016.5,-986.18,-956.79,-928.07,-899.55,-870.78,-841.36,-811.04,-779.85,-748.09,-716.34,-685.45,-656.44,-630.39,-608.33,-591.14,-579.43,-573.46,-573.16,-578.1,-587.55,-600.61,-616.29,-633.64,-651.87,-670.42,-689.03,-707.75,-726.9,-747.01,-768.75,-792.75,-819.57,-849.56,-882.8,-919.09,-957.96,-998.71,-1040.5,-1082.6,-1124.2,-1164.7,-1204,-1241.9,-1278.8,-1315.1,-1351.5,-1388.6,-1426.8,-1466.7,-1508.1,-1550.9,-1594.6,-1638.3,-1681,-1721.7,-1759.1,-1792.6,-1821.3,-1844.8,-1863.2,-1876.8,-1886,-1891.6,-1894.5,-1895.2,-1894.6,-1893,-1890.6,-1887.4,-1883,-1877.1,-1869.3,-1859.1,-1846.4,-1831.2,-1813.7,-1794.5,-1774.3,-1754,-1734.5,-1716.6,-1701,-1687.9,-1677.4,-1669.3,-1662.9,-1657.4,-1651.9,-1645.5,-1637.2,-1626.5,-1613,-1596.4,-1577,-1555.2,-1531.2,-1505.6,-1478.6,-1450.4,-1420.6,-1388.6,-1353.7,-1314.5,-1269.7,-1217.7,-1157.3,-1087.1,-1006.1,-913.84,-810.16,-695.4,-570.31,-435.97,-293.78,-145.29,7.8385,163.89,321.13,477.82,632.14,782.15,925.67,1060.3,1183.2,1291.3,1381,1448.8,1490.6,1502.8,1481.7,1424.2,1327.9,1191.3,1013.7,795.62,538.83,246.08,-78.843,-431.22,-805.64,-1196.1,-1596.4,-1999.9,-2400.2,-2790.9,-3165.8,-3519.2,-3845.6,-4140,-4398.1,-4616,-4790.7,-4919.9,-5002.2,-5037.3,-5025.7,-4969.2,-4870.6,-4733.7,-4563.3,-4364.7,-4144,-3907.3,-3661,-3411,-3163,-2921.8,-2691.6,-2475.8,-2276.8,-2096.3,-1935.3,-1794.2,-1672.8,-1570.7,-1487.3,-1421.7,-1372.8,-1339.6,-1320.7,-1314.7,-1320.1,-1334.8,-1356.8,-1384,-1413.8,-1444,-1472.3,-1496.7,-1515.6,-1527.8,-1532.5,-1529.7,-1519.6,-1503.2,-1481.4,-1455.5,-1426.9,-1396.8,-1366,-1335.5,-1305.4,-1276.1,-1247.3,-1218.7,-1190.1,-1161.1,-1131.7,-1102,-1072.2,-1042.8,-1014.7,-988.54,-965.03,-944.79,-928.18,-915.27,-905.79,-899.17,-894.57,-890.98,-887.33,-882.61,-875.98,-866.83,-854.88,-840.12,-822.87,-803.61,-782.96,-761.56,-739.94,-718.47,-697.29,-676.29,-655.14,-633.36,-610.38,-585.68,-558.84,-529.7,-498.35,-465.17,-430.86,-396.3,-362.53,-330.56,-301.35,-275.63,-253.81,-236.02,-222,-211.23,-202.95,-196.29,-190.39,-184.5,-178.08,-170.87,-162.89,-154.45,-146.05,-138.35,-131.98,-127.5,-125.3,-125.47,-127.86,-132,-137.23,-142.74,-147.69,-151.34,-153.14,-152.8,-150.4,-146.31,-141.2,-135.94,-131.52,-128.89,-128.86,-132,-138.59,-148.56,-161.54,-176.86,-193.74,-211.28,-228.68,-245.24,-260.53,-274.35,-286.77,-298.09,-308.76,-319.28,-330.12,-341.6,-353.86,-366.76,-379.95,-392.87,-404.82,-415.07,-422.97,-428,-429.92,-428.77,-424.89,-418.89,-411.62,-403.99,-396.94,-391.27,-387.58,-386.17,-387.01,-389.8,-393.94,-398.68,-403.22,-406.77,-408.73,-408.73,-406.68,-402.78,-397.5,-391.5,-385.52,-380.31,-376.49,-374.48,-374.41,-376.18,-379.39,-383.49,-387.81,-391.69,-394.6,-396.24,-396.55,-395.79,-394.52,-393.5,-393.67,-395.99,-401.33,-410.4,-423.64,-441.2,-462.91,-488.31,-516.78,-547.55,-579.86,-613.08,-646.74,-680.63,-714.8,-749.55,-785.35,-822.79,-862.43,-904.75,-950,-998.19,-1049,-1102,-1156.3,-1211.1,-1265.5,-1318.5,-1369.6,-1418.4,-1464.6,-1508.5,-1550.5,-1591.1,-1631,-1670.7,-1710.9,-1751.6,-1792.8,-1834.2,-1875.2,-1915,-1952.7,-1987.4,-2018.3,-2044.9,-2067.1,-2084.9,-2098.7,-2109.3,-2117.5,-2124.3,-2130.6,-2137.1,-2144.4,-2152.7,-2161.7,-2171.3,-2180.7,-2189.3,-2196.5,-2201.7,-2204.6,-2205,-2203.3,-2199.9,-2195.5,-2190.9,-2187,-2184.3,-2183.5,-2184.6,-2187.6,-2192,-2197.2,-2202.4,-2206.8,-2209.5,-2210,-2207.9,-2203.2,-2196.1,-2187.2,-2177.1,-2166.7,-2156.8,-2148,-2140.7,-2135.3,-2131.4,-2128.7,-2126.7,-2124.5,-2121.5,-2117,-2110.4,-2101.7,-2090.7,-2078,-2063.9,-2049.4,-2035.1,-2021.8,-2010,-2000.1,-1992,-1985.6,-1980.3,-1975.4,-1970.3,-1964.1,-1956.4,-1946.8,-1935.3,-1922.2,-1908,-1893.6,-1879.9,-1867.7,-1858,-1851.2,-1847.8,-1847.7,-1850.7,-1856.1,-1863.3,-1871.3,-1879.3,-1886.8,-1893.1,-1898.2,-1902.2,-1905.3,-1908.1,-1911.2,-1915,-1920,-1926.5,-1934.4,-1943.2,-1952.5,-1961.5,-1969.2,-1974.8,-1977.5,-1976.9,-1972.8,-1965.1,-1954.4,-1941.2,-1926.4,-1910.8,-1895.2,-1880.3,-1866.6,-1854.2,-1842.8,-1832.3,-1822,-1811.2,-1799.3,-1785.7,-1770.3,-1752.9,-1733.6,-1713,-1691.5,-1670,-1648.9,-1628.9,-1610.2,-1592.8,-1576.5,-1560.7,-1544.8,-1527.9,-1509.2,-1488,-1463.8,-1436.7,-1406.7,-1374.5,-1341,-1307.2,-1274.4,-1243.6,-1215.9,-1191.9,-1172,-1156.2,-1144.2,-1135.2,-1128.5,-1123,-1117.8,-1112.2,-1105.6,-1097.7,-1088.6,-1078.5,-1067.9,-1057.3,-1047.2,-1038.1,-1030.3,-1023.7,-1018.2,-1013.3,-1008.6,-1003.4,-997.26,-989.8,-980.87,-970.62,-959.43,-947.93,-936.92,-927.27,-919.8,-915.19,-913.89,-916.06,-921.53,-929.81,-940.18,-951.76,-963.63,-974.91,-984.91,-993.2,-999.64,-1004.4,-1007.9,-1010.9,-1014,-1018,-1023.4,-1030.7,-1040,-1051.1,-1063.7,-1076.9,-1090.2,-1102.8,-1114,-1123.4,-1130.8,-1136.3,-1140.3,-1143.4,-1146.4,-1150,-1155,-1161.8,-1170.7,-1181.5,-1193.9,-1207.3,-1220.7,-1233.3,-1244.2,-1252.7,-1258.2,-1260.4,-1259.7,-1256.3,-1250.8,-1244.2,-1237.1,-1230.4,-1224.5,-1219.9,-1216.5,-1214,-1212,-1209.8,-1206.6,-1201.7,-1194.5,-1184.8,-1172.4,-1157.6,-1140.9,-1122.8,-1104.1,-1085.6,-1067.8,-1051.1,-1035.8,-1021.7,-1008.6,-995.97,-983.22,-969.84,-955.39,-939.68,-922.76,-904.96,-886.91,-869.4,-853.36,-839.72,-829.3,-822.69,-820.21,-821.83,-827.21,-835.71,-846.46,-858.54,-871.01,-883.05,-894.09,-903.83,-912.25,-919.63,-926.44,-933.31,-940.84,-949.57,-959.82,-971.68,-984.91,-999.01,-1013.3,-1026.8,-1038.6,-1048,-1054.3,-1057.1,-1056.4,-1052.6,-1046.3,-1038.2,-1029.3,-1020.6,-1012.8,-1006.6,-1002.4,-1000.2,-999.8,-1000.7,-1002.4,-1004.2,-1005.5,-1006.1,-1005.7,-1004.5,-1002.6,-1000.8,-999.67,-999.84,-1001.9,-1006.3,-1013.2,-1022.5,-1033.6,-1045.9,-1058.5,-1070.4,-1080.8,-1088.9,-1094.1,-1096.2,-1095.3,-1091.7,-1086.1,-1079.1,-1071.5,-1063.9,-1056.9,-1050.7,-1045.1,-1039.8,-1034.3,-1028,-1020.1,-1010.1,-997.48,-982.18,-964.32,-944.35,-922.99,-901.11,-879.68,-859.61,-841.68,-826.43,-814.11,-804.64,-797.68,-792.63,-788.79,-785.39,-781.78,-777.47,-772.21,-766.06,-759.34,-752.59,-746.5,-741.81,-739.19,-739.13,-741.91,-747.5,-755.58,-765.58,-776.76,-788.29,-799.38,-809.34,-817.75,-824.44,-829.53,-833.45,-836.8,-840.33,-844.8,-850.87,-859.02,-869.47,-882.16,-896.73,-912.62,-929.1,-945.38,-960.74,-974.61,-986.66,-996.81,-1005.3,-1012.6,-1019.3,-1026.2,-1033.9,-1043.1,-1053.9,-1066.6,-1080.8,-1096.1,-1111.7,-1126.7,-1140.5,-1152.3,-1161.6,-1168.1,-1172,-1173.7,-1173.7,-1172.8,-1171.8,-1171.5,-1172.4,-1174.8,-1178.7,-1183.8,-1189.7,-1195.4,-1200.4,-1203.7,-1204.8,-1203.4,-1199.3,-1192.7,-1184.3,-1174.7,-1164.8,-1155.4,-1147.4,-1141.2,-1137,-1135,-1134.6,-1135.4,-1136.4,-1136.9,-1136,-1133.2,-1127.9,-1120,-1109.6,-1097.1,-1083.1,-1068.2,-1053,-1038,-1023.6,-1009.6,-995.93,-982.06,-967.36,-951.07,-932.48,-911.03,-886.36,-858.46,-827.6,-794.42,-759.78,-724.74,-690.41,-657.82,-627.82,-601,-577.6,-557.52,-540.37,-525.48,-512.04,-499.18,-486.12,-472.23,-457.09,-440.55,-422.72,-403.9,-384.52,-365.05,-345.9,-327.37,-309.55,-292.3,-275.32,-258.16,-240.27,-221.17,-200.5,-178.12,-154.18,-129.14,-103.75,-79.023,-56.119,-36.257,-20.582,-10.056,-5.3569,-6.8297,-14.458,-27.889,-46.496,-69.477,-95.957,-125.11,-156.25,-188.94,-223,-258.51,-295.78,-335.29,-377.53,-422.97,-471.86,-524.22,-579.79,-637.97,-697.9,-758.53,-818.72,-877.33,-933.37,-986.05,-1034.9,-1079.7,-1120.6,-1158,-1192.4,-1224.3,-1254.2,-1282.4,-1309.2,-1334.4,-1357.8,-1378.7,-1396.8,-1411.3,-1421.9,-1428.3,-1430.6,-1429,-1424.2,-1417.1,-1408.6,-1399.7,-1391.6,-1384.8,-1380.1,-1377.4,-1376.7,-1377.5,-1378.9,-1380.3,-1380.6,-1379.1,-1375.2,-1368.4,-1358.7,-1346.4,-1332,-1316.2,-1299.6,-1283.1,-1267.1,-1252.1,-1238.2,-1225,-1212.3,-1199.4,-1185.5,-1170.1,-1152.5,-1132.2,-1109.1,-1083.2,-1054.7,-1023.8,-990.89,-956.21,-919.81,-881.5,-840.74,-796.7,-748.21,-693.91,-632.33,-562.02,-481.68,-390.34,-287.41,-172.8,-46.896,89.391,234.72,387.4,545.46,706.73,868.97,1029.9,1187.1,1338.3,1481,1612.8,1730.7,1832,1913.5,1971.7,2003.2,2004.4,1971.9,1902.6,1793.9,1644.2,1452.5,1219.1,945.65,634.77,290.47,-82.195,-477.26,-888.04,-1307.4,-1728.1,-2142.9,-2544.6,-2926.9,-3283.6,-3609.6,-3900.2,-4151.7,-4361,-4525.9,-4644.9,-4717.4,-4743.5,-4724.4,-4661.9,-4558.9,-4418.8,-4246.3,-4046.4,-3824.8,-3587.4,-3340.6,-3090.1,-2841.8,-2600.8,-2371.3,-2157,-1960.3,-1782.9,-1625.6,-1488.4,-1370.6,-1271.1,-1188.5,-1121.5,-1068.3,-1027.7,-997.99,-978.04,-966.51,-962.09,-963.43,-969.07,-977.47,-986.98,-995.93,-1002.7,-1005.9,-1004.2,-996.73,-983.12,-963.32,-937.75,-907.22,-872.83,-835.86,-797.65,-759.42,-722.22,-686.81,-653.63,-622.79,-594.11,-567.21,-541.59,-516.74,-492.25,-467.84,-443.49,-419.34,-395.76,-373.21,-352.2,-333.16,-316.36,-301.82,-289.29,-278.22,-267.79,-257.02,-244.83,-230.19,-212.23,-190.33,-164.22,-134.01,-100.19,-63.578,-25.21,13.737,52.088,88.789,123,154.17,182.04,206.65,228.28,247.35,264.35,279.7,293.73,306.57,318.16,328.26,336.5,342.46,345.76,346.17,343.65,338.44,331.07,322.31,313.14,304.63,297.84,293.69,292.89,295.79,302.41,312.41,325.1,339.59,354.81,369.7,383.3,394.83,403.81,410.04,413.64,414.98,414.61,413.14,411.19,409.22,407.5,406.08,404.76,403.14,400.7,396.87,391.15,383.18,372.85,360.29,345.9,330.32,314.35,298.85,284.62,272.34,262.44,255.08,250.09,247.05,245.32,244.16,242.78,240.53,236.94,231.81,225.21,217.53,209.35,201.41,194.49,189.29,186.35,185.95,188.06,192.37,198.28,205.01,211.72,217.55,221.81,224.04,224.05,221.97,218.25,213.52,208.58,204.25,201.24,200.11,201.11,204.23,209.13,215.25,221.83,228.05,233.13,236.41,237.44,236.02,232.23,226.36,218.86,210.23,200.97,191.41,181.68,171.66,160.95,148.93,134.8,117.73,96.901,71.669,41.642,6.7474,-32.746,-76.243,-122.88,-171.6,-221.31,-270.94,-319.6,-366.65,-411.76,-454.92,-496.41,-536.72,-576.49,-616.36,-656.91,-698.49,-741.23,-785.01,-829.41,-873.83,-917.58,-959.92,-1000.2,-1038,-1073.1,-1105.6,-1135.8,-1164.3,-1191.8,-1219.1,-1246.8,-1275.4,-1305.4,-1336.8,-1369.1,-1402.1,-1434.8,-1466.6,-1496.6,-1524,-1548.4,-1569.5,-1587.4,-1602.4,-1615,-1625.7,-1635.5,-1644.7,-1653.9,-1663.2,-1672.6,-1681.9,-1690.4,-1697.6,-1702.9,-1705.7,-1705.7,-1702.9,-1697.5,-1690,-1681.1,-1671.6,-1662.6,-1654.9,-1649.1,-1645.7,-1644.7,-1645.7,-1648.4,-1651.6,-1654.6,-1656.3,-1655.8,-1652.4,-1645.8,-1636.1,-1623.4,-1608.4,-1591.9,-1574.8,-1558,-1542.2,-1528,-1515.5,-1504.8,-1495.6,-1487.4,-1479.5,-1471.5,-1462.9,-1453.5,-1443.1,-1432.2,-1421.1,-1410.6,-1401.3,-1394.1,-1389.5,-1387.8,-1389.2,-1393.4,-1400,-1408.1,-1416.8,-1425.2,-1432.5,-1437.9,-1441,-1441.7,-1440.3,-1437.3,-1433.4,-1429.5,-1426.5,-1425,-1425.8,-1429,-1434.6,-1442.4,-1451.7,-1461.9,-1472.3,-1482.1,-1490.8,-1498.1,-1504,-1508.5,-1512.1,-1515.2,-1518.4,-1522,-1526.4,-1531.6,-1537.3,-1543.1,-1548.2,-1551.8,-1553.2,-1551.4,-1546,-1536.6,-1523.4,-1506.6,-1487,-1465.5,-1443,-1420.6,-1399.1,-1379.2,-1361.4,-1345.6,-1331.7,-1319.2,-1307.4,-1295.6,-1283,-1269.2,-1253.8,-1236.8,-1218.2,-1198.6,-1178.4,-1158.3,-1138.9,-1120.5,-1103.6,-1088,-1073.4,-1059.3,-1045,-1029.7,-1012.7,-993.42,-971.53,-946.98,-920.06,-891.38,-861.8,-832.33,-804.04,-777.92,-754.77,-735.1,-719.11,-706.66,-697.28,-690.26,-684.77,-679.89,-674.83,-668.94,-661.8,-653.27,-643.47,-632.71,-621.44,-610.12,-599.18,-588.89,-579.32,-570.29,-561.43,-552.19,-541.95,-530.09,-516.1,-499.69,-480.83,-459.83,-437.28,-414.02,-391.08,-369.53,-350.39,-334.51,-322.46,-314.5,-310.52,-310.12,-312.61,-317.16,-322.87,-328.93,-334.67,-339.69,-343.87,-347.35,-350.51,-353.91,-358.13,-363.73,-371.13,-380.5,-391.76,-404.57,-418.36,-432.39,-445.87,-458.04,-468.31,-476.3,-481.95,-485.45,-487.29,-488.13,-488.75,-489.93,-492.29,-496.26,-501.98,-509.28,-517.71,-526.56,-534.98,-542.1,-547.11,-549.41,-548.68,-544.89,-538.36,-529.69,-519.7,-509.3,-499.43,-490.88,-484.24,-479.81,-477.6,-477.29,-478.36,-480.11,-481.79,-482.7,-482.32,-480.34,-476.72,-471.68,-465.66,-459.24,-453.04,-447.63,-443.45,-440.72,-439.4,-439.23,-439.73,-440.29,-440.25,-439.02,-436.18,-431.52,-425.16,-417.47,-409.12,-400.95,-393.91,-388.92,-386.77,-388.02,-392.91,-401.36,-412.96,-427.04,-442.72,-459.08,-475.22,-490.36,-503.97,-515.79,-525.83,-534.34,-541.76,-548.62,-555.43,-562.59,-570.29,-578.49,-586.88,-594.94,-601.96,-607.18,-609.87,-609.45,-605.6,-598.29,-587.83,-574.85,-560.21,-544.98,-530.23,-517,-506.1,-498.11,-493.26,-491.46,-492.3,-495.18,-499.34,-504.01,-508.53,-512.41,-515.4,-517.52,-519.01,-520.32,-521.98,-524.5,-528.3,-533.57,-540.26,-548.02,-556.22,-564.01,-570.42,-574.45,-575.21,-572.04,-564.57,-552.81,-537.14,-518.25,-497.1,-474.79,-452.46,-431.11,-411.59,-394.42,-379.84,-367.77,-357.89,-349.67,-342.51,-335.86,-329.24,-322.37,-315.18,-307.8,-300.52,-293.74,-287.86,-283.21,-279.95,-278.01,-277.09,-276.62,-275.9,-274.08,-270.35,-263.99,-254.51,-241.71,-225.72,-207.01,-186.37,-164.78,-143.36,-123.21,-105.29,-90.336,-78.785,-70.717,-65.886,-63.769,-63.652,-64.741,-66.288,-67.696,-68.602,-68.931,-68.901,-68.984,-69.833,-72.182,-76.733,-84.049,-94.461,-108.02,-124.46,-143.26,-163.67,-184.83,-205.88,-226.04,-244.76,-261.74,-276.99,-290.8,-303.7,-316.36,-329.5,-343.77,-359.62,-377.28,-396.67,-417.41,-438.88,-460.27,-480.69,-499.32,-515.44,-528.59,-538.61,-545.64,-550.11,-552.67,-554.13,-555.3,-556.9,-559.5,-563.4,-568.61,-574.88,-581.73,-588.5,-594.52,-599.15,-601.89,-602.51,-601,-597.66,-593.02,-587.77,-582.67,-578.43,-575.64,-574.64,-575.48,-577.91,-581.41,-585.25,-588.58,-590.54,-590.39,-587.57,-581.81,-573.15,-561.91,-548.69,-534.21,-519.27,-504.6,-490.77,-478.09,-466.6,-456.01,-445.8,-435.27,-423.63,-410.15,-394.25,-375.61,-354.23,-330.43,-304.86,-278.42,-252.18,-227.21,-204.53,-184.91,-168.9,-156.68,-148.11,-142.78,-140.04,-139.15,-139.34,-139.95,-140.48,-140.66,-140.44,-140.01,-139.68,-139.82,-140.78,-142.78,-145.84,-149.77,-154.12,-158.25,-161.39,-162.77,-161.65,-157.54,-150.16,-139.6,-126.3,-110.98,-94.661,-78.49,-63.658,-51.27,-42.232,-37.16,-36.336,-39.699,-46.878,-57.262,-70.099,-84.611,-100.09,-116.02,-132.09,-148.26,-164.74,-181.91,-200.26,-220.27,-242.32,-266.58,-292.97,-321.13,-350.39,-379.9,-408.66,-435.62,-459.85,-480.56,-497.26,-509.74,-518.11,-522.76,-524.26,-523.32,-520.61,-516.72,-512.04,-506.72,-500.64,-493.45,-484.63,-473.56,-459.66,-442.47,-421.75,-397.56,-370.24,-340.48,-309.16,-277.35,-246.15,-216.57,-189.48,-165.42,-144.67,-127.17,-112.56,-100.3,-89.701,-80.103,-70.939,-61.844,-52.71,-43.712,-35.286,-28.073,-22.827,-20.32,-21.222,-26.012,-34.905,-47.824,-64.402,-84.025,-105.92,-129.23,-153.17,-177.04,-200.39,-222.99,-244.87,-266.29,-287.63,-309.36,-331.87,-355.42,-380.07,-405.57,-431.43,-456.9,-481.06,-502.91,-521.49,-535.99,-545.86,-550.87,-551.13,-547.11,-539.58,-529.48,-517.88,-505.79,-494.1,-483.45,-474.22,-466.45,-459.96,-454.34,-449.08,-443.68,-437.75,-431.11,-423.82,-416.23,-408.92,-402.66,-398.29,-396.64,-398.4,-404,-413.61,-427.02,-443.71,-462.88,-483.55,-504.64,-525.12,-544.1,-560.91,-575.16,-586.74,-595.8,-602.63,-607.61,-611.08,-613.21,-613.92,-612.83,-609.25,-602.17,-590.36,-572.49,-547.19,-513.22,-469.57,-415.52,-350.74,-275.25,-189.42,-93.928,10.373,122.5,241.42,366.15,495.75,629.32,765.94,904.6,1044.1,1183,1319.2,1450.5,1573.9,1686,1783,1860.9,1915.5,1942.8,1939,1901,1826.1,1712.9,1560.4,1369,1139.9,875.47,578.65,253.36,-95.859,-463.93,-845.31,-1234.2,-1624.4,-2009.7,-2383.8,-2740.4,-3073.4,-3377,-3645.8,-3875,-4060.5,-4199.5,-4289.8,-4330.8,-4322.9,-4267.9,-4168.8,-4029.7,-3855.5,-3652,-3425.2,-3181.3,-2926.6,-2666.8,-2407.2,-2152.4,-1906.5,-1672.6,-1453.3,-1250.5,-1065.4,-899.18,-752.22,-624.81,-516.89,-428.14,-357.92,-305.3,-268.95,-247.22,-238.09,-239.22,-248.06,-261.92,-278.13,-294.17,-307.84,-317.33,-321.35,-319.18,-310.63,-296.02,-276.1,-251.86,-224.46,-195.05,-164.65,-134.06,-103.83,-74.221,-45.243,-16.743,11.521,39.784,68.186,96.712,125.15,153.11,180.04,205.34,228.39,248.68,265.91,280,291.16,299.88,306.86,312.97,319.12,326.15,334.76,345.42,358.27,373.18,389.74,407.33,425.18,442.54,458.71,473.21,485.74,496.31,505.17,512.79,519.75,526.67,534.11,542.47,551.91,562.32,573.32,584.33,594.57,603.25,609.59,613.01,613.14,609.93,603.63,594.79,584.18,572.71,561.32,550.85,541.93,534.95,529.97,526.73,524.74,523.29,521.61,518.97,514.79,508.69,500.59,490.69,479.46,467.56,455.71,444.67,435.04,427.22,421.35,417.28,414.59,412.68,410.83,408.3,404.51,399.03,391.74,382.8,372.67,362.04,351.75,342.7,335.68,331.33,330.03,331.85,336.55,343.62,352.38,362.05,371.87,381.21,389.67,397.11,403.68,409.8,416.06,423.17,431.83,442.62,455.9,471.76,489.98,510.06,531.24,552.66,573.41,592.68,609.84,624.56,636.82,646.92,655.48,663.28,671.22,680.21,690.97,704.05,719.68,737.77,757.95,779.57,801.87,823.97,845.08,864.55,881.92,897.01,909.88,920.79,930.15,938.42,945.99,953.1,959.79,965.83,970.71,973.75,974.08,970.82,963.12,950.34,932.05,908.15,878.86,844.69,806.39,764.82,720.91,675.48,629.16,582.34,535.14,487.39,438.7,388.52,336.31,281.56,223.96,163.44,100.24,34.888,-31.854,-99.039,-165.66,-230.76,-293.55,-353.48,-410.29,-464.06,-515.14,-564.13,-611.73,-658.67,-705.6,-752.98,-801.01,-849.62,-898.48,-947.03,-994.56,-1040.4,-1083.8,-1124.3,-1161.6,-1195.8,-1227.1,-1256.2,-1283.6,-1310.1,-1336.5,-1363.4,-1391,-1419.4,-1448.4,-1477.4,-1505.8,-1532.6,-1557.1,-1578.5,-1596.4,-1610.4,-1620.7,-1627.7,-1632,-1634.5,-1635.9,-1637.1,-1638.8,-1641.4,-1645,-1649.6,-1654.5,-1659.3,-1663.2,-1665.5,-1665.5,-1662.8,-1657.1,-1648.6,-1637.5,-1624.4,-1609.8,-1594.6,-1579.1,-1563.9,-1549,-1534.4,-1519.7,-1504.4,-1487.9,-1469.6,-1448.8,-1425.3,-1399,-1370.1,-1339.2,-1307.1,-1274.5,-1242.6,-1212.3,-1184.1,-1158.7,-1136.2,-1116.2,-1098.5,-1082.1,-1066.3,-1050,-1032.6,-1013.3,-991.87,-968.14,-942.38,-915.09,-886.96,-858.74,-831.19,-804.93,-780.4,-757.8,-737.08,-718,-700.15,-683.08,-666.37,-649.71,-633.01,-616.44,-600.38,-585.45,-572.39,-562.02,-555.06,-552.06,-553.33,-558.82,-568.14,-580.58,-595.15,-610.71,-626.05,-640.06,-651.82,-660.68,-666.35,-668.9,-668.72,-666.43,-662.83,-658.74,-654.9,-651.84,-649.87,-648.98,-648.9,-649.13,-649.03,-647.95,-645.3,-640.66,-633.89,-625.11,-614.71,-603.32,-591.71,-580.67,-570.92,-563.03,-557.26,-553.6,-551.72,-551.03,-550.73,-549.96,-547.89,-543.83,-537.31,-528.19,-516.62,-503.04,-488.13,-472.69,-457.58,-443.53,-431.13,-420.71,-412.31,-405.71,-400.45,-395.95,-391.56,-386.71,-380.98,-374.15,-366.3,-357.74,-348.97,-340.64,-333.43,-327.91,-324.51,-323.37,-324.33,-326.94,-330.48,-334.05,-336.67,-337.4,-335.46,-330.3,-321.74,-309.91,-295.29,-278.63,-260.85,-242.95,-225.88,-210.38,-196.98,-185.89,-176.99,-169.89,-164,-158.6,-152.98,-146.54,-138.85,-129.78,-119.44,-108.19,-96.605,-85.359,-75.123,-66.464,-59.759,-55.125,-52.399,-51.149,-50.732,-50.383,-49.32,-46.86,-42.527,-36.129,-27.794,-17.976,-7.408,2.9842,12.192,19.245,23.332,23.894,20.7,13.861,3.818,-8.7178,-22.857,-37.642,-52.169,-65.688,-77.683,-87.919,-96.445,-103.56,-109.72,-115.48,-121.37,-127.8,-134.98,-142.9,-151.27,-159.62,-167.34,-173.73,-178.17,-180.17,-179.49,-176.15,-170.46,-163,-154.55,-145.98,-138.16,-131.86,-127.6,-125.65,-125.94,-128.09,-131.49,-135.34,-138.79,-141.06,-141.53,-139.85,-135.99,-130.23,-123.17,-115.6,-108.45,-102.64,-98.972,-98.043,-100.17,-105.36,-113.31,-123.51,-135.26,-147.8,-160.46,-172.67,-184.11,-194.71,-204.61,-214.2,-223.97,-234.42,-246,-258.99,-273.44,-289.1,-305.49,-321.9,-337.47,-351.32,-362.63,-370.75,-375.3,-376.22,-373.75,-368.46,-361.12,-352.64,-343.93,-335.8,-328.85,-323.41,-319.47,-316.73,-314.64,-312.46,-309.41,-304.78,-298,-288.8,-277.18,-263.47,-248.26,-232.34,-216.62,-201.98,-189.17,-178.76,-171.03,-165.97,-163.3,-162.51,-162.96,-163.96,-164.87,-165.22,-164.76,-163.46,-161.55,-159.49,-157.83,-157.15,-157.98,-160.67,-165.31,-171.73,-179.48,-187.86,-196.02,-203.04,-208.08,-210.44,-209.66,-205.61,-198.44,-188.62,-176.83,-163.89,-150.65,-137.86,-126.08,-115.63,-106.52,-98.496,-91.041,-83.495,-75.138,-65.314,-53.521,-39.502,-23.285,-5.192,14.198,34.119,53.713,72.139,88.681,102.83,114.35,123.28,129.95,134.87,138.7,142.1,145.68,149.84,154.8,160.49,166.6,172.64,178,182.02,184.16,184.05,181.52,176.72,170.04,162.1,153.67,145.54,138.46,133,129.47,127.9,127.97,129.11,130.51,131.26,130.46,127.31,121.26,112.04,99.707,84.654,67.544,49.23,30.644,12.68,-3.9144,-18.629,-31.243,-41.849,-50.812,-58.714,-66.263,-74.183,-83.109,-93.496,-105.56,-119.24,-134.21,-149.97,-165.85,-181.15,-195.24,-207.64,-218.06,-226.48,-233.09,-238.29,-242.59,-246.55,-250.65,-255.22,-260.4,-266.06,-271.83,-277.14,-281.31,-283.63,-283.46,-280.35,-274.09,-264.8,-252.88,-239.02,-224.1,-209.09,-194.96,-182.51,-172.33,-164.68,-159.51,-156.42,-154.78,-153.75,-152.45,-150.03,-145.83,-139.39,-130.59,-119.56,-106.74,-92.719,-78.211,-63.905,-50.38,-38.016,-26.941,-17.019,-7.872,1.0633,10.448,20.936,33.075,47.218,63.456,81.593,101.16,121.48,141.72,161.04,178.67,194.04,206.81,217,224.9,231.09,236.35,241.57,247.6,255.17,264.76,276.59,290.52,306.11,322.7,339.42,355.39,369.78,381.92,391.36,397.97,401.85,403.37,403.05,401.48,399.2,396.67,394.1,391.51,388.65,385.09,380.27,373.58,364.5,352.66,337.92,320.44,300.67,279.29,257.19,235.33,214.68,196.05,180.05,167.01,156.95,149.6,144.44,140.78,137.89,135.06,131.73,127.57,122.51,116.76,110.79,105.21,100.75,98.075,97.753,100.11,105.22,112.85,122.5,133.47,144.94,156.09,166.19,174.69,181.29,185.97,188.98,190.76,191.89,192.96,194.51,196.89,200.18,204.23,208.56,212.49,215.17,215.68,213.19,207.01,196.72,182.21,163.71,141.78,117.2,90.937,64.006,37.346,11.739,-12.268,-34.402,-54.662,-73.272,-90.606,-107.1,-123.13,-138.93,-154.54,-169.73,-183.99,-196.64,-206.84,-213.68,-216.37,-214.27,-207.02,-194.57,-177.24,-155.66,-130.7,-103.42,-74.901,-46.182,-18.12,8.6667,33.841,57.347,79.367,100.24,120.38,140.17,159.84,179.45,198.81,217.5,234.89,250.25,262.8,271.87,276.95,277.81,274.55,267.57,257.59,245.55,232.49,219.48,207.49,197.27,189.29,183.74,180.52,179.31,179.68,181.16,183.4,186.25,189.84,194.63,201.39,211.17,225.23,244.91,271.52,306.2,349.84,403,465.85,538.17,619.38,708.61,804.75,906.58,1012.8,1122,1232.9,1344.2,1454.5,1562.1,1665.5,1762.4,1850.5,1927,1988.6,2032.1,2053.6,2049.7,2016.9,1952.1,1853,1718,1546.2,1338.1,1095.1,819.54,514.85,185.27,-164.28,-528.31,-901.03,-1276.4,-1648.4,-2011.1,-2358.5,-2685.3,-2986.2,-3256.3,-3491.6,-3688.1,-3842.9,-3953.6,-4018.7,-4037.8,-4011.3,-3940.8,-3828.8,-3678.7,-3495.1,-3283,-3047.9,-2795.8,-2532.6,-2263.9,-1995.1,-1730.7,-1474.8,-1230.7,-1000.6,-786.48,-589.29,-409.64,-247.73,-103.46,23.47,133.46,227.05,304.88,367.74,416.6,452.68,477.46,492.66,500.23,502.25,500.88,498.19,496.06,496.05,499.3,506.51,517.83,533.01,551.35,571.91,593.56,615.19,635.78,654.52,670.89,684.67,695.92,704.95,712.18,718.12,723.18,727.65,731.61,734.95,737.35,738.36,737.46,734.22,728.32,719.68,708.53,695.37,681,666.4,652.7,640.98,632.21,627.13,626.12,629.21,636.04,645.91,657.89,670.89,683.83,695.73,705.86,713.77,719.32,722.72,724.41,725.03,725.27,725.75,726.98,729.21,732.44,736.41,740.64,744.54,747.45,748.8,748.2,745.45,740.67,734.22,726.7,718.88,711.57,705.54,701.41,699.56,700.07,702.76,707.15,712.56,718.2,723.27,727.08,729.15,729.25,727.47,724.2,720.06,715.84,712.41,710.58,710.99,714.07,719.96,728.52,739.32,751.78,765.19,778.87,792.23,804.9,816.72,827.82,838.54,849.43,861.07,874.07,888.9,905.81,924.8,945.57,967.54,989.96,1011.9,1032.6,1051.1,1066.9,1079.7,1089.7,1097.2,1102.8,1107.4,1112.1,1117.7,1125.1,1134.7,1146.8,1161.4,1178.1,1196.2,1214.9,1233.6,1251.3,1267.5,1282,1294.5,1305.4,1315,1323.8,1332.5,1341.7,1351.6,1362.5,1374.1,1386.1,1397.8,1408.3,1416.8,1422.4,1424.4,1422.4,1416.2,1406,1392.2,1375.5,1356.7,1336.7,1316.2,1295.8,1275.7,1255.9,1236.1,1215.7,1194.2,1170.6,1144.4,1114.9,1081.9,1045.4,1005.7,963.16,918.58,872.68,826.21,779.75,733.7,688.15,642.94,597.61,551.54,503.97,454.2,401.6,345.79,286.69,224.52,159.83,93.425,26.285,-40.541,-106.05,-169.41,-230.01,-287.54,-342.01,-393.68,-443.02,-490.62,-537.06,-582.84,-628.26,-673.4,-718.06,-761.82,-804.07,-844.12,-881.27,-914.97,-944.84,-970.79,-993.01,-1012,-1028.4,-1043,-1056.8,-1070.4,-1084.4,-1099.3,-1115,-1131.2,-1147.4,-1163,-1177,-1188.8,-1197.6,-1203.3,-1205.5,-1204.6,-1200.9,-1195.3,-1188.4,-1181.1,-1174.2,-1168,-1162.9,-1158.7,-1155,-1151.2,-1146.5,-1140.1,-1131.3,-1119.4,-1104.3,-1085.9,-1064.7,-1041.4,-1016.8,-992.06,-968.11,-945.88,-926.02,-908.91,-894.61,-882.88,-873.21,-864.96,-857.41,-849.89,-841.87,-833.05,-823.35,-812.93,-802.15,-791.51,-781.52,-772.63,-765.15,-759.17,-754.51,-750.77,-747.33,-743.44,-738.34,-731.31,-721.85,-709.7,-694.92,-677.89,-659.28,-639.99,-621.02,-603.39,-587.99,-575.49,-566.25,-560.32,-557.4,-556.91,-558.09,-560.09,-562.07,-563.35,-563.46,-562.22,-559.74,-556.4,-552.75,-549.48,-547.26,-546.65,-548.01,-551.44,-556.77,-563.53,-571.07,-578.61,-585.37,-590.63,-593.92,-594.99,-593.9,-591.02,-586.93,-582.37,-578.12,-574.89,-573.21,-573.35,-575.29,-578.69,-582.96,-587.31,-590.9,-592.89,-592.63,-589.69,-583.94,-575.58,-565.11,-553.25,-540.86,-528.83,-517.98,-508.92,-502.03,-497.36,-494.71,-493.61,-493.43,-493.48,-493.09,-491.74,-489.09,-485.08,-479.9,-473.97,-467.86,-462.22,-457.67,-454.68,-453.52,-454.19,-456.4,-459.6,-463.02,-465.81,-467.1,-466.13,-462.35,-455.49,-445.59,-432.98,-418.27,-402.23,-385.73,-369.57,-354.41,-340.7,-328.6,-317.95,-308.36,-299.23,-289.85,-279.53,-267.68,-253.93,-238.16,-220.54,-201.51,-181.71,-161.92,-142.93,-125.42,-109.93,-96.71,-85.747,-76.745,-69.181,-62.377,-55.606,-48.189,-39.6,-29.528,-17.926,-5.0118,8.7665,22.805,36.434,49.021,60.073,69.316,76.741,82.616,87.455,91.951,96.885,103.01,110.93,121.06,133.48,147.97,164,180.82,197.49,213.05,226.61,237.47,245.2,249.67,251.1,250,247.1,243.25,239.33,236.1,234.13,233.76,234.99,237.61,241.14,244.98,248.51,251.14,252.47,252.3,250.69,247.94,244.55,241.14,238.39,236.86,236.98,238.93,242.6,247.64,253.45,259.28,264.32,267.81,269.15,267.98,264.22,258.09,250.09,240.93,231.43,222.4,214.54,208.32,203.96,201.36,200.1,199.57,198.99,197.55,194.51,189.32,181.7,171.64,159.46,145.76,131.3,116.95,103.53,91.747,82.072,74.686,69.456,65.963,63.556,61.444,58.813,54.936,49.277,41.563,31.823,20.385,7.8299,-5.0907,-17.55,-28.762,-38.082,-45.093,-49.651,-51.897,-52.233,-51.251,-49.641,-48.08,-47.134,-47.164,-48.27,-50.267,-52.707,-54.941,-56.196,-55.689,-52.731,-46.816,-37.694,-25.401,-10.255,7.1871,26.21,46.029,65.899,85.206,103.55,120.79,137.04,152.65,168.13,184.06,200.99,219.34,239.31,260.82,283.52,306.82,329.92,351.94,372.04,389.48,403.8,414.79,422.6,427.65,430.65,432.44,433.91,435.9,439.04,443.7,449.94,457.5,465.85,474.24,481.82,487.79,491.45,492.35,490.32,485.49,478.31,469.42,459.61,449.68,440.34,432.11,425.26,419.76,415.32,411.43,407.44,402.68,396.58,388.74,379.03,367.62,354.99,341.86,329.15,317.81,308.73,302.65,300.01,300.92,305.16,312.14,321.04,330.85,340.52,349.04,355.61,359.64,360.85,359.28,355.19,349.05,341.43,332.88,323.84,314.6,305.22,295.52,285.19,273.75,260.72,245.67,228.36,208.78,187.18,164.11,140.38,116.96,94.904,75.233,58.818,46.281,37.926,33.706,33.234,35.835,40.634,46.671,53.023,58.912,63.803,67.46,69.959,71.659,73.136,75.09,78.222,83.129,90.209,99.594,111.13,124.37,138.67,153.26,167.33,180.16,191.24,200.32,207.43,212.93,217.44,221.75,226.72,233.19,241.84,253.12,267.2,283.95,302.97,323.64,345.22,366.98,388.25,408.56,427.67,445.58,462.56,479.04,495.55,512.6,530.59,549.72,569.91,590.77,611.63,631.59,649.63,664.7,675.84,682.35,683.78,680.09,671.56,658.82,642.73,624.3,604.54,584.36,564.45,545.24,526.82,509.01,491.39,473.37,454.33,433.7,411.06,386.22,359.28,330.58,300.71,270.39,240.43,211.6,184.54,159.69,137.23,117.12,99.083,82.672,67.381,52.716,38.295,23.918,9.6113,-4.356,-17.501,-29.184,-38.706,-45.406,-48.767,-48.507,-44.648,-37.531,-27.805,-16.361,-4.248,7.4487,17.727,25.776,31.067,33.399,32.915,30.057,25.498,20.037,14.491,9.5735,5.8108,3.4775,2.5782,2.8667,3.9062,5.1626,6.1115,6.3438,5.6587,4.1307,2.1378,0.34741,-0.33384,1.1605,5.9523,15.106,29.526,49.875,76.522,109.53,148.69,193.58,243.65,298.33,357.13,419.72,485.98,556.02,630.12,708.71,792.23,881.03,975.26,1074.7,1178.9,1286.6,1396.5,1506.7,1614.9,1718.5,1815,1901.7,1975.9,2035.2,2077.4,2100.4,2102.4,2081.9,2037.4,1967.7,1871.8,1748.6,1597.6,1418.3,1211,976.05,714.94,429.76,123.48,-200.02,-536.02,-879.09,-1223.2,-1562.1,-1889.3,-2198.6,-2484.3,-2741.1,-2965.1,-3152.8,-3302,-3411.7,-3481.4,-3512,-3504.8,-3461.7,-3385.1,-3277.9,-3143.1,-2983.9,-2803.8,-2606.5,-2395.7,-2175.4,-1949.7,-1722.7,-1498.4,-1280.6,-1073,-878.65,-700.02,-538.95,-396.5,-272.93,-167.78,-79.938,-7.7518,50.79,97.889,135.77,166.53,192.01,213.72,232.84,250.2,266.36,281.68,296.41,310.8,325.1,339.68,354.95,371.39,389.43,409.43,431.54,455.68,481.44,508.15,534.82,560.3,583.29,602.53,616.92,625.61,628.12,624.41,614.87,600.33,581.93,561.05,539.17,517.73,497.99,480.97,467.33,457.43,451.28,448.66,449.2,452.44,457.99,465.55,474.99,486.36,499.85,515.72,534.26,555.64,579.89,606.77,635.79,666.18,696.96,727,755.13,780.26,801.51,818.27,830.29,837.7,840.97,840.89,838.43,834.64,830.55,827.01,824.66,823.83,824.53,826.52,829.35,832.45,835.23,837.21,838.09,837.79,836.49,834.61,832.75,831.57,831.75,833.83,838.15,844.77,853.46,863.69,874.7,885.58,895.4,903.3,908.6,910.9,910.14,906.58,900.78,893.55,885.81,878.53,872.56,868.58,867.01,867.99,871.38,876.8,883.75,891.63,899.93,908.25,916.42,924.48,932.73,941.63,951.79,963.79,978.17,995.24,1015.1,1037.5,1061.9,1087.6,1113.5,1138.7,1162,1182.7,1199.9,1213.5,1223.2,1229.4,1232.5,1233.1,1232,1229.9,1227.1,1224,1220.7,1217,1212.6,1206.9,1199.5,1190,1178.2,1164,1147.6,1129.7,1110.8,1091.9,1073.7,1057.1,1042.7,1030.7,1021.2,1013.8,1007.9,1002.6,996.92,989.84,980.43,967.93,951.89,932.13,908.79,882.29,853.21,822.21,789.93,756.88,723.37,689.47,654.96,619.42,582.29,542.92,500.72,455.23,406.22,353.72,298.08,239.87,179.9,119.09,58.352,-1.4788,-59.76,-116.11,-170.41,-222.85,-273.82,-323.87,-373.6,-423.56,-474.13,-525.47,-577.47,-629.73,-681.64,-732.39,-781.12,-826.97,-869.25,-907.5,-941.5,-971.37,-997.5,-1020.5,-1041.2,-1060.2,-1078.5,-1096.4,-1114.4,-1132.5,-1150.4,-1167.8,-1184,-1198.3,-1210.3,-1219.4,-1225.4,-1228.3,-1228.4,-1226.2,-1222.5,-1217.8,-1212.9,-1208.4,-1204.5,-1201.3,-1198.6,-1195.9,-1192.6,-1188.1,-1181.6,-1172.6,-1160.9,-1146.5,-1129.8,-1111.3,-1092,-1072.8,-1054.7,-1038.8,-1025.6,-1015.7,-1009,-1005.3,-1004.1,-1004.4,-1005.5,-1006.4,-1006.1,-1004,-999.76,-993.22,-984.56,-974.17,-962.6,-950.45,-938.27,-926.49,-915.34,-904.81,-894.68,-884.54,-873.89,-862.21,-849.09,-834.28,-817.79,-799.89,-781.15,-762.34,-744.36,-728.19,-714.67,-704.52,-698.13,-695.6,-696.68,-700.83,-707.26,-715.07,-723.34,-731.24,-738.16,-743.76,-747.98,-751.07,-753.5,-755.9,-758.93,-763.2,-769.14,-776.93,-786.49,-797.41,-809.05,-820.61,-831.2,-839.97,-846.23,-849.52,-849.7,-846.93,-841.68,-834.64,-826.63,-818.52,-811.1,-804.94,-800.39,-797.51,-796.04,-795.51,-795.26,-794.56,-792.72,-789.18,-783.58,-775.82,-766.08,-754.74,-742.36,-729.58,-717,-705.11,-694.19,-684.28,-675.14,-666.31,-657.15,-646.94,-634.95,-620.58,-603.46,-583.45,-560.73,-535.77,-509.27,-482.07,-455.06,-429.05,-404.7,-382.4,-362.23,-344,-327.25,-311.33,-295.5,-279.05,-261.4,-242.18,-221.32,-199,-175.71,-152.1,-128.99,-107.15,-87.287,-69.897,-55.213,-43.171,-33.422,-25.381,-18.312,-11.422,-3.9732,4.6182,14.702,26.351,39.355,53.251,67.392,81.042,93.482,104.11,112.55,118.65,122.57,124.72,125.7,126.23,127.02,128.71,131.73,136.26,142.23,149.28,156.85,164.28,170.85,175.95,179.14,180.26,179.42,177.04,173.82,170.61,168.35,167.93,170.11,175.41,184.04,195.87,210.5,227.24,245.25,263.66,281.62,298.44,313.68,327.12,338.83,349.08,358.31,367,375.6,384.42,393.58,402.96,412.24,420.86,428.2,433.58,436.46,436.42,433.36,427.42,419.08,409.05,398.25,387.63,378.16,370.6,365.49,363.03,363.09,365.21,368.67,372.57,375.96,377.97,377.87,375.21,369.84,361.92,351.92,340.5,328.45,316.57,305.54,295.88,287.82,281.33,276.11,271.66,267.36,262.54,256.63,249.22,240.16,229.53,217.67,205.12,192.52,180.55,169.77,160.57,153.08,147.15,142.32,137.93,133.14,127.05,118.83,107.82,93.593,76.049,55.396,32.136,6.9999,-19.156,-45.45,-71.088,-95.462,-118.21,-139.24,-158.74,-177.09,-194.81,-212.46,-230.5,-249.25,-268.75,-288.77,-308.82,-328.16,-345.87,-361.03,-372.74,-380.31,-383.3,-381.61,-375.48,-365.48,-352.42,-337.28,-321.08,-304.77,-289.12,-274.67,-261.65,-249.99,-239.39,-229.37,-219.35,-208.76,-197.16,-184.3,-170.14,-154.89,-138.97,-122.93,-107.37,-92.836,-79.713,-68.167,-58.092,-49.115,-40.623,-31.847,-21.962,-10.199,4.037,21.08,40.931,63.247,87.357,112.33,137.09,160.48,181.49,199.27,213.28,223.32,229.57,232.5,232.86,231.54,229.47,227.5,226.31,226.35,227.76,230.47,234.16,238.39,242.7,246.69,250.13,253.01,255.57,258.31,261.89,267.1,274.75,285.5,299.84,317.97,339.77,364.78,392.28,421.33,450.89,479.93,507.56,533.06,556.01,576.25,593.92,609.35,623.01,635.4,646.95,657.93,668.4,678.16,686.8,693.7,698.14,699.38,696.79,689.89,678.51,662.71,642.9,619.71,593.95,566.51,538.26,509.92,481.99,454.69,427.95,401.41,374.53,346.62,317.01,285.1,250.5,213.08,173,130.68,86.803,42.212,-2.1974,-45.569,-87.188,-126.55,-163.4,-197.74,-229.82,-260.01,-288.76,-316.49,-343.49,-369.81,-395.28,-419.42,-441.54,-460.76,-476.13,-486.74,-491.83,-490.89,-483.74,-470.56,-451.92,-428.64,-401.82,-372.62,-342.24,-311.71,-281.88,-253.32,-226.31,-200.85,-176.74,-153.65,-131.22,-109.17,-87.328,-65.754,-44.702,-24.616,-6.0693,10.322,24.001,34.572,41.884,46.088,47.656,47.366,46.234,45.427,46.158,49.568,56.626,68.047,84.25,105.35,131.2,161.44,195.6,233.21,273.91,317.49,363.99,413.65,466.94,524.45,586.81,654.58,728.11,807.49,892.45,982.36,1076.2,1172.5,1269.8,1366.2,1459.9,1549,1631.8,1706.5,1771.8,1826.3,1868.5,1897.2,1911,1908.2,1887.3,1846.3,1783.4,1696.6,1584.3,1445,1277.8,1082.5,859.38,609.96,336.5,42.172,-269.02,-592.4,-922.78,-1254.7,-1582.5,-1901,-2204.8,-2489.4,-2750.6,-2985.1,-3189.8,-3362.6,-3501.7,-3606.1,-3675.2,-3708.8,-3707.2,-3671.4,-3602.6,-3502.9,-3374.8,-3221.4,-3046.2,-2853.5,-2647.5,-2432.9,-2214.4,-1996.3,-1782.8,-1577.3,-1382.7,-1201,-1033.7,-881.4,-744.07,-621.21,-511.95,-415.2,-329.78,-254.56,-188.48,-130.67,-80.349,-36.86,0.42623,32.162,59.09,82.072,102.1,120.29,137.79,155.73,175.11,196.7,220.97,248.03,277.6,309.06,341.5,373.83,404.89,433.61,459.11,480.79,498.44,512.22,522.62,530.45,536.69,542.4,548.57,556.07,565.47,577.11,590.98,606.85,624.29,642.76,661.74,680.82,699.74,718.48,737.24,756.37,776.36,797.69,820.77,845.81,872.77,901.28,930.71,960.12,988.44,1014.5,1037.1,1055.4,1068.7,1076.6,1079.2,1076.8,1070.3,1060.5,1048.5,1035.3,1021.8,1008.5,995.91,984.02,972.62,961.28,949.44,936.52,922.04,905.65,887.27,867.03,845.31,822.65,799.71,777.14,755.5,735.16,716.27,698.71,682.13,665.98,649.6,632.36,613.71,593.34,571.2,547.56,523.03,498.45,474.88,453.44,435.19,421.03,411.57,407.09,407.49,412.33,420.86,432.11,445.06,458.68,472.08,484.6,495.82,505.62,514.1,521.57,528.42,535.06,541.83,548.91,556.32,563.86,571.2,577.91,583.56,587.78,590.38,591.43,591.23,590.37,589.65,590.03,592.51,598,607.27,620.76,638.62,660.6,686.13,714.36,744.25,774.7,804.64,833.2,859.73,883.88,905.63,925.19,943.01,959.63,975.56,991.23,1006.9,1022.5,1037.7,1052.1,1064.8,1075.1,1082.3,1085.6,1084.6,1079.2,1069.5,1056,1039.3,1020.4,1000.2,979.38,958.76,938.75,919.45,900.67,881.95,862.61,841.86,818.93,793.15,764.07,731.51,695.59,656.69,615.41,572.48,528.66,484.59,440.76,397.39,354.39,311.42,267.89,223.05,176.14,126.43,73.41,16.835,-43.211,-106.3,-171.71,-238.46,-305.46,-371.6,-435.89,-497.52,-555.98,-611.08,-662.93,-711.89,-758.52,-803.43,-847.21,-890.29,-932.91,-975.02,-1016.3,-1056.4,-1094.4,-1129.8,-1161.9,-1190.1,-1214.3,-1234.4,-1250.7,-1263.7,-1274.2,-1282.9,-1290.7,-1298.2,-1305.8,-1313.9,-1322.4,-1330.9,-1339.1,-1346.3,-1352,-1355.8,-1357.2,-1356.3,-1353.4,-1348.7,-1343.2,-1337.4,-1332.3,-1328.5,-1326.6,-1326.7,-1328.9,-1332.6,-1337.3,-1342.1,-1346,-1348.1,-1347.6,-1344,-1336.9,-1326.4,-1312.8,-1296.7,-1278.9,-1260.3,-1241.6,-1223.4,-1206.3,-1190.3,-1175.4,-1161.3,-1147.6,-1133.7,-1119.2,-1103.8,-1087.3,-1069.9,-1051.9,-1033.9,-1016.6,-1000.8,-987.19,-976.17,-967.99,-962.6,-959.58,-958.27,-957.79,-957.14,-955.38,-951.66,-945.42,-936.4,-924.7,-910.76,-895.29,-879.2,-863.44,-848.92,-836.35,-826.18,-818.55,-813.28,-809.91,-807.77,-806.1,-804.17,-801.36,-797.27,-791.77,-785.03,-777.43,-769.6,-762.22,-755.97,-751.41,-748.86,-748.37,-749.66,-752.18,-755.1,-757.45,-758.23,-756.5,-751.54,-742.87,-730.37,-714.25,-695.03,-673.47,-650.45,-626.88,-603.6,-581.24,-560.19,-540.58,-522.27,-504.91,-488.03,-471.13,-453.77,-435.7,-416.87,-397.46,-377.92,-358.86,-341,-325.06,-311.65,-301.21,-293.87,-289.49,-287.62,-287.57,-288.46,-289.38,-289.46,-288.01,-284.59,-279.06,-271.63,-262.79,-253.26,-243.87,-235.49,-228.86,-224.52,-222.74,-223.48,-226.37,-230.82,-236.05,-241.23,-245.6,-248.55,-249.73,-249.09,-246.92,-243.74,-240.29,-237.43,-235.98,-236.63,-239.86,-245.85,-254.46,-265.29,-277.67,-290.8,-303.84,-316.04,-326.78,-335.71,-342.73,-348.01,-351.91,-354.96,-357.69,-360.6,-363.98,-367.93,-372.25,-376.49,-379.99,-381.93,-381.46,-377.82,-370.44,-359.02,-343.61,-324.61,-302.76,-279.07,-254.71,-230.91,-208.82,-189.39,-173.33,-161,-152.45,-147.44,-145.52,-146.09,-148.55,-152.38,-157.19,-162.85,-169.4,-177.11,-186.35,-197.54,-211.04,-227.03,-245.47,-266,-288.01,-310.6,-332.69,-353.13,-370.79,-384.71,-394.18,-398.82,-398.63,-393.95,-385.45,-374.01,-360.61,-346.24,-331.77,-317.86,-304.92,-293.08,-282.22,-272.04,-262.14,-252.1,-241.62,-230.55,-218.96,-207.2,-195.79,-185.43,-176.88,-170.87,-167.99,-168.6,-172.79,-180.31,-190.64,-203.02,-216.53,-230.22,-243.21,-254.81,-264.59,-272.42,-278.5,-283.3,-287.46,-291.74,-296.89,-303.52,-312.02,-322.52,-334.88,-348.69,-363.34,-378.14,-392.41,-405.56,-417.22,-427.26,-435.85,-443.39,-450.5,-457.91,-466.34,-476.41,-488.51,-502.74,-518.9,-536.45,-554.59,-572.35,-588.69,-602.63,-613.37,-620.39,
